# E_R [keV]  \xi_T*d_E/dx_T [keV/Å]  x_T [Å]
0.0011	0.00009877732807135526	1.0713782869754378
0.0012	0.00010357058984886562	1.1764906380906486
0.0013000000000000002	0.00010865080964853288	1.2766742735842682
0.0014	0.00011355035217499026	1.3723393164056288
0.0015	0.00011829047357802712	1.4640265243211692
0.0016	0.00012289243000743283	1.5521607427680157
0.0017	0.00012732433723852335	1.6371157459588574
0.0018000000000000002	0.00013175624446961381	1.719165151811214
0.002	0.0001401417955615333	1.8754771073669905
0.0022500000000000003	0.00015005778943828974	2.0586057334223677
0.00249999	0.00015948489186988995	2.2302820605426947
0.00274999	0.00016845498708101795	2.392327870974577
0.00299999	0.00017696807507167382	2.5461743861019275
0.00324999	0.0001852367173397515	2.6928934135858666
0.00349999	0.00019315463313630411	2.833333428869359
0.00374999	0.00020083873128517326	2.9682135102420326
0.00399999	0.00020828901178635895	3.098101794623382
0.004499990000000001	0.00022238183909673308	3.344881244062364
0.00499999	0.0002357838415389516	3.5768583618285943
0.005499990000000001	0.00024847376296322513	3.796327538041311
0.00599999	0.0002604834875942378	4.005151239334443
0.006499990000000001	0.00027213185767883057	4.204698916175946
0.00699999	0.00028320631171910944	4.396075669695801
0.00799999	0.00030420738771103957	4.75793361995467
0.008999990000000001	0.000323699277067922	5.096451752041506
0.00999999	0.0003421496150851237	5.415679923779292
0.0109999	0.00035945212101369767	5.718609348929604
0.0119999	0.00037593626517537965	6.00765485232235
0.0129999	0.00039172958446890595	6.284542148846132
0.013999900000000001	0.00040671517007043504	6.5507544254299255
0.0149999	0.0004211268396276501	6.807516478004099
0.0159999	0.00043496459314055146	7.055803348146602
0.016999900000000002	0.0004482284306091389	7.2964743232784945
0.0179999	0.00046114154160620117	7.530219144215216
0.0199999	0.00048558611386401444	7.9792007329350865
0.0224999	0.0005140693545818144	8.510741676842413
0.024999900000000002	0.0005405970295189892	9.014565317244289
0.0274999	0.0005655092370721694	9.49496161976294
0.0299999	0.0005889335141400913	9.955245228411163
0.0324999	0.0006110930502955439	10.398050957784392
0.0349999	0.0006322004070364209	10.82544853285165
0.037499899999999996	0.0006522768405125119	11.239142091064942
0.0399999	0.0006714392595476587	11.640575044766987
0.044999899999999995	0.0007074471772909073	12.411246918614893
0.0499999	0.0007406917955615332	13.145074365516603
0.0549999	0.0007716301215800092	13.847772329622753
0.059999899999999995	0.0008006022537429654	14.523702589668357
0.0649999	0.0008278420096980851	15.176307601347897
0.0699999	0.0008535832070930521	15.808354782280865
0.0799999	0.0009011332141719463	17.019459663832755
0.0899999	0.0009442938263193291	18.17107669240993
0.0999999	0.0009837452403284608	19.273385507390476
0.11	0.0010201889091423922	20.3339892968689
0.12	0.0010540924680564898	21.358627400576655
0.13	0.001085657850493753	22.351929018947466
0.13999899999999998	0.0011153101794499699	23.317518568157553
0.149999	0.0011431557356740877	24.258624513815835
0.159999	0.0011694070806640003	25.17772531352637
0.169999	0.0011942767759176016	26.07694810618669
0.179999	0.001217658540685945	26.95819228292287
0.199999	0.001262190174494744	28.672514732138932
0.224999	0.0013113981612572117	30.736850362516442
0.249999	0.0013567800410575867	32.72815549071042
0.27499900000000005	0.0013975918486532405	34.65713524937491
0.299999	0.0014348963915336423	36.533017364909256
0.32499900000000004	0.001469756477188263	38.36234002560329
0.349999	0.0015021721056171027	40.15019506885116
0.374999	0.0015311867500796374	41.90194014034714
0.39999900000000005	0.0015599888330442785	43.62099559199316
0.44999900000000004	0.0016105784695430573	46.97198410366004
0.499999	0.0016553226648497504	50.2256306225119
0.549999	0.0016961344724454042	53.396372735944105
0.5999990000000001	0.0017333327345768592	56.494995617648165
0.649999	0.0017669174512441157	59.53101892666387
0.699999	0.0017979514299366441	62.51206448093865
0.799999	0.0018517294889038333	68.3341325298735
0.899999	0.0018989181414363076	74.00015382002454
0.9999990000000001	0.001939942510529855	79.53623663700293
1.1	0.0019769282111634164	84.96222881251757
1.2	0.0020089187165964677	90.2943967280803
1.3	0.0020382522033058435	95.54601491811098
1.4	0.002064928671291544	100.7258137067319
1.5	0.0020877790323151524	105.84406349752547
1.6	0.0021103105510919197	110.90711501482889
1.7	0.002130291331893958	115.91919144218558
1.8	0.0021478276554702156	120.88744584109259
2.	0.00218077468764379	130.70912786942586
2.25	0.002214784527306835	142.79597578359247
2.5	0.0022441180140162103	154.71192696339523
2.75	0.002268987709269812	166.48483138679165
3.	0.002289606174565533	178.1407599984813
3.25	0.0023082053056312606	189.6977311877748
3.5	0.0023247851024669947	201.16698532018742
3.75	0.0023395581265706297	212.55898875441952
4.	0.0023515678512016423	223.88607280202365
4.5	0.002373674246982621	246.37580227180513
5.	0.0023915294128057196	268.6770496983941
5.5	0.002407577805896719	290.8209493117417
6.	0.002419906372774573	312.83522528099735
6.5	0.002431916097405585	334.7396358029131
7.	0.0024416939263087107	356.5459226913225
8.	0.002460186776625491	399.90606161289725
9.	0.0024751723622270204	442.97205171865244
10.	0.002489201421088026	485.78863273899356
11.	0.002502911637702191	528.3672973967423
12.	0.0025156653275758326	570.7216499804301
13.	0.0025284190174494747	612.8617502164774
14.	0.002540109899833646	654.7993372448786
15.	0.0025528635897072876	696.5363775887189
16.	0.0025656172795809292	738.064702734952
17.	0.0025783709694545713	779.3871014559406
18.	0.002591124659328213	820.5056059327856
20.	0.002616632039075496	902.1389117926356
22.5	0.002650641878738541	1003.0384652636541
25.	0.002688902948359466	1102.5788051253369
27.5	0.0027334345821682657	1200.5877320193003
30.	0.002774352670512866	1297.0622997603773
32.5	0.0028124011786358973	1392.1764054166802
35.	0.0028491743177715637	1486.0337549466751
37.5	0.0028832904381835556	1578.7295769185148
40.	0.0029155997858634486	1670.3655102813716
45.	0.00297745518175061	1850.701777142986
50.	0.003035271909177786	2027.4517609952104
55.	0.003090963021626022	2200.934125739445
60.	0.003145803888082682	2371.3424770504184
65.	0.0031988379818072422	2538.852434979543
70.	0.003250702987293385	2703.6403911360603
80.	0.0033533701907762004	3025.524673152933
90.	0.0034563562365058577	3337.687982369331
100.	0.0035578543517502566	3640.7535756637435
110.	0.003660946678228861	3935.2286608750724
120.	0.0037623385127243127	4221.585235869825
130.	0.0038637303472197648	4500.332736320819
140.	0.003965441023962057	4771.8482900169965
150.	0.00406715170070435	5036.482126875003
160.	0.004167374446961385	5294.626828926161
170.	0.004268128596963155	5546.62530724727
180.	0.004369201589211766	5792.732526027895
200.	0.004569221958730047	6268.381601672791
225.	0.004816856103776591	6834.650419518992
250.	0.005062364633844194	7372.63707445099
275.	0.005304578460694439	7885.2911141713885
300.	0.005541903373093122	8375.270392779184
325.	0.00577593358227445	8844.833038871291
350.	0.0060040120695147425	9295.963638067207
375.	0.006227201642303473	9730.450065972454
400.	0.006446139985134322	10149.774092220865
450.	0.0068675431547092335	10948.117164960293
500.	0.007270453473967368	11699.892435786252
550.	0.007654233258415037	12412.022018187468
600.	0.008021645807524864	13090.015769857411
650.	0.008372265998301065	13738.304260097479
700.	0.008708006884224684	14360.53868930172
800.	0.009337401479488904	15538.35478892228
900.	0.009916004504831344	16642.24994704494
1000.	0.010449661401444094	17685.854661965954