# E_R [keV]  \xi_T*d_E/dx_T [keV/Å]  x_T [Å]
0.0011	0.00005536850683863653	2.235741108389095
0.0012	0.000057035291616469435	2.500745033874854
0.0013000000000000002	0.00005898781092764512	2.7573381166899877
0.0014	0.00006083615619020623	3.0057224854647693
0.0015	0.00006259669761179223	3.2468455162919936
0.0016	0.0000642694351924031	3.48144440819834
0.0017	0.00006587222734037277	3.7101402170214723
0.0018000000000000002	0.00006740507405570124	3.9334545888295045
0.002	0.00007026390758982356	4.365773141610798
0.0022500000000000003	0.00007357068953298846	4.8830177421423295
0.00249999	0.00007658280773864362	5.378480099489659
0.00274999	0.00007936574303734676	5.855571500591444
0.00299999	0.00008197009425271067	6.31673501500881
0.00324999	0.00008438097937779039	6.764000162395026
0.00349999	0.00008665792644036569	7.199016508171299
0.00374999	0.00008880093544043655	7.623074848433667
0.00399999	0.00009082488838494793	8.037299684775084
0.004499990000000001	0.00009457515413507196	8.839831341992149
0.00499999	0.00009796825171851748	9.612624189044116
0.005499990000000001	0.0001011083551838991	10.360074997755603
0.00599999	0.00010398058252427187	11.085623138859034
0.006499990000000001	0.00010665934377436044	11.792071299126984
0.00699999	0.00010915952094110979	12.481572063010848
0.00799999	0.00011369853305931545	13.816751149525148
0.008999990000000001	0.0001177464389483382	15.10247706270471
0.00999999	0.00012139253064984766	16.34688343664494
0.0109999	0.00012469633619162357	17.556085805331165
0.0119999	0.00012774714761533559	18.734982904035967
0.0129999	0.00013054496492098365	19.887201223971246
0.013999900000000001	0.00013314931613634756	21.01582648739078
0.0149999	0.00013554531925448235	22.123469732775483
0.0159999	0.00013782226631705764	23.212196916394223
0.016999900000000002	0.0001399503933101836	24.28365123029588
0.0179999	0.00014194458224080507	25.339448071838323
0.0199999	0.00014563531996314937	27.409133606673354
0.0224999	0.00014975763588689675	29.927595880631888
0.024999900000000002	0.0001534186095953512	32.38152211389085
0.0274999	0.00015673729714407202	34.780299172089286
0.0299999	0.0001597285805400043	37.131300482156064
0.0324999	0.00016248175182481754	39.44044331280487
0.0349999	0.00016501169300545677	41.71236380218305
0.037499899999999996	0.00016736305010275673	43.950939830482625
0.0399999	0.00016953582311671748	46.15947335317944
0.044999899999999995	0.00017350931897101556	50.49688284516598
0.0499999	0.00017705123662391044	54.74141930487282
0.0549999	0.00018022110410318196	58.90635857289879
0.059999899999999995	0.0001831230954574446	63.00181308805555
0.0649999	0.0001857869747005882	67.0355237364027
0.0699999	0.0001882425058465028	71.01408039139923
0.0799999	0.0001926922259230388	78.82591821447402
0.0899999	0.00019665083977039193	86.46942046845417
0.0999999	0.0002002225214371767	93.96816986478194
0.11	0.00020349656296506273	101.34006900103829
0.12	0.0002065473743887748	108.59830406293656
0.13	0.00020938983771525763	115.75381613100203
0.13999899999999998	0.00021209836297923608	122.81446070497628
0.149999	0.00021465806817376517	129.78867279968384
0.159999	0.00021711359931967972	136.68193148074084
0.169999	0.0002194649564169797	143.49932702405377
0.179999	0.000221741903479555	150.24524242737917
0.199999	0.00022607256750053153	163.53719562386755
0.224999	0.00023117709588264476	179.809477343417
0.249999	0.0002360286301466941	195.73530711567216
0.27499900000000005	0.00024065693430656938	211.34466007013316
0.299999	0.0002451364183969953	226.66145367943898
0.32499900000000004	0.00024943731840408205	241.7062138490981
0.349999	0.0002535596343278294	256.49933468493356
0.374999	0.00025763730423074196	271.0554722943965
0.39999900000000005	0.0002616703281128198	285.38414435146575
0.44999900000000004	0.00026940897172418685	313.40455225379526
0.499999	0.00027673091914109563	340.65370540757453
0.549999	0.0002840082205371696	367.1935953367082
0.5999990000000001	0.0002909283537665651	393.0777752082706
0.649999	0.000297759194954291	418.3580869749178
0.699999	0.00030445609807951254	443.0701285026776
0.799999	0.000317254624052158	490.9423265983652
0.899999	0.0003295025157678408	536.9629179458601
0.9999990000000001	0.00034140812132379	581.3268337816979
1.1	0.00035286726667139117	624.1978652537346
1.2	0.00036401388987314864	665.7165931118095
1.3	0.00037477358089433785	706.0041864451285
1.4	0.00038528027779746304	745.1641442154395
1.5	0.00039535539649918506	783.2924209178512
1.6	0.00040543051520090714	820.4615639293218
1.7	0.0004151633477428957	856.732107450713
1.8	0.0004245687761320956	892.1765145970753
2.	0.0004430522287577069	960.7975070657669
2.25	0.00046388703848061806	1042.8298885447366
2.5	0.0004837396357451635	1121.3509488083098
2.75	0.0005026993125930127	1196.7833576154662
3.	0.0005210041811352847	1269.4701015973515
3.25	0.0005385947133441997	1339.6932183520587
3.5	0.0005554411452058679	1407.7066023356579
3.75	0.000571826234852243	1473.7158913278388
4.	0.0005877351002763802	1537.8864425052104
4.5	0.0006181836864857205	1661.2897440477818
5.	0.0006468315498547235	1778.928995631886
5.5	0.0006742144426334067	1891.5789916812575
6.	0.0007001388987314863	1999.8591177607705
6.5	0.0007250216143434202	2104.2801105176472
7.	0.0007488179434483737	2205.251477480168
8.	0.0007935681383317981	2398.2058812669193
9.	0.0008351841825526186	2580.928802153795
10.	0.0008737256041386154	2755.0816661136205
11.	0.0009098948338175893	2921.9425939769626
12.	0.0009438064630430162	3082.494126930321
13.	0.0009755840124725393	3237.5515768191995
14.	0.0010055072638367234	3387.7809095988614
15.	0.0010337101551980725	3533.7285312255467
16.	0.0010603296010204806	3675.8550561117822
17.	0.0010853596485011696	3814.561975810475
18.	0.0011092378286443204	3950.178699384085
20.	0.001152925448231876	4213.244851909292
22.5	0.0012012041669619451	4529.224144182623
25.	0.0012433500106300052	4833.528596770559
27.5	0.001280377932109702	5128.29597844312
30.	0.001312710580398271	5415.1862711337
32.5	0.0013410816384380982	5695.521043009519
35.	0.0013657753525618316	5970.365999077508
37.5	0.001387379562043796	6240.5940521275415
40.	0.001406037134150663	6506.930530951918
45.	0.001435982708525264	7030.3076210350655
50.	0.0014575199489759764	7544.410448902687
55.	0.001471820069449366	8052.255143020903
60.	0.0014800602366947775	8556.250060587961
65.	0.00148312444192474	9058.344669548273
70.	0.0014817523208844167	9560.172970944683
80.	0.001468501381900645	10568.328146122993
90.	0.0014448940542838922	11589.471421400152
100.	0.0014143353412231596	12630.150751938105
110.	0.0013794950747643684	13695.343060054773
120.	0.0013422974984054995	14788.847650780684
130.	0.0013042278364396574	15913.5398968351
140.	0.0012661730564807597	17071.600119608618
150.	0.001228725462405216	18264.75688480557
160.	0.0011924807809510314	19494.261851159215
170.	0.0011575835164056411	20761.001815198088
180.	0.0011241818935582174	22065.672002320665
200.	0.0010623077173836015	24790.36486616543
225.	0.0009932879455743747	28414.26036566295
250.	0.0009330699879526613	32280.94554358831
275.	0.0008801599886613281	36388.40120344704
300.	0.0008335124867124941	40734.07045884674
325.	0.0007922320317482817	45314.38158812415
350.	0.0007555725887605415	50124.86049080606
375.	0.0007224909290624338	55161.98328954865
400.	0.000692837042023953	60422.12090585811
450.	0.0006412801148040538	71596.02598485522
500.	0.0005982179859683936	83619.38350815009
550.	0.0005615640493232232	96465.83909533267
600.	0.0005298281695131459	110114.95923441624
650.	0.0005022644603500816	124546.3244600173
700.	0.00047797910849691746	139739.17441272034
800.	0.00043715657288640077	172340.4831067572
900.	0.00040423117426121474	207780.52316782257
1000.	0.0003768188151087805	245939.03203445475