# (E [MeV])  (Flux [1/MeV/cm^2/s]
3.464000E-03  8.332430E+03
5.190800E-03  2.073985E+04
6.917500E-03  3.314645E+04
8.644300E-03  5.368130E+04
1.037100E-02  7.426330E+04
1.209800E-02  1.028444E+05
1.382500E-02  1.315219E+05
1.555100E-02  1.680713E+05
1.727800E-02  2.047663E+05
1.900500E-02  2.492185E+05
2.073200E-02  2.938470E+05
2.245800E-02  3.461015E+05
2.418500E-02  3.986020E+05
2.591200E-02  4.586055E+05
2.763900E-02  5.188755E+05
2.936500E-02  5.865255E+05
3.109200E-02  6.545035E+05
3.281900E-02  7.297385E+05
3.454600E-02  8.053630E+05
3.627200E-02  8.881010E+05
3.799900E-02  9.712695E+05
3.972600E-02  1.061449E+06
4.145300E-02  1.152080E+06
4.318000E-02  1.249618E+06
4.490600E-02  1.347650E+06
4.663300E-02  1.452466E+06
4.836000E-02  1.557816E+06
5.008700E-02  1.669828E+06
5.181300E-02  1.782414E+06
5.354000E-02  1.901560E+06
5.526700E-02  2.021320E+06
5.699400E-02  2.147580E+06
5.872000E-02  2.274475E+06
6.044700E-02  2.407725E+06
6.217400E-02  2.541590E+06
6.390100E-02  2.681605E+06
6.562700E-02  2.822235E+06
6.735400E-02  2.969220E+06
6.908100E-02  3.117025E+06
7.080800E-02  3.270570E+06
7.253500E-02  3.425140E+06
7.426100E-02  3.585450E+06
7.598800E-02  3.746580E+06
7.771500E-02  3.913655E+06
7.944200E-02  4.081550E+06
8.116800E-02  4.254980E+06
8.289500E-02  4.429230E+06
8.462200E-02  4.609220E+06
8.634900E-02  4.790235E+06
8.807500E-02  4.976580E+06
8.980200E-02  5.163745E+06
9.152900E-02  5.356445E+06
9.325600E-02  5.550170E+06
9.498200E-02  5.749020E+06
9.670900E-02  5.948895E+06
9.843600E-02  6.153895E+06
1.001600E-01  6.359715E+06
1.018900E-01  6.571070E+06
1.036200E-01  6.783655E+06
1.053400E-01  7.001160E+06
1.070700E-01  7.219690E+06
1.088000E-01  7.442730E+06
1.105200E-01  7.666590E+06
1.122500E-01  7.895780E+06
1.139800E-01  8.126200E+06
1.157000E-01  8.360925E+06
1.174300E-01  8.596470E+06
1.191600E-01  8.837345E+06
1.208800E-01  9.079245E+06
1.226100E-01  9.326065E+06
1.243400E-01  9.573910E+06
1.260600E-01  9.825650E+06
1.277900E-01  1.007821E+07
1.295200E-01  1.033590E+07
1.312400E-01  1.059481E+07
1.329700E-01  1.085742E+07
1.347000E-01  1.112125E+07
1.364200E-01  1.138960E+07
1.381500E-01  1.165958E+07
1.398800E-01  1.193366E+07
1.416100E-01  1.220878E+07
1.433300E-01  1.248758E+07
1.450600E-01  1.276720E+07
1.467900E-01  1.305153E+07
1.485100E-01  1.333710E+07
1.502400E-01  1.362614E+07
1.519700E-01  1.391642E+07
1.536900E-01  1.421060E+07
1.554200E-01  1.450662E+07
1.571500E-01  1.480612E+07
1.588700E-01  1.510727E+07
1.606000E-01  1.541108E+07
1.623300E-01  1.571612E+07
1.640500E-01  1.602526E+07
1.657800E-01  1.633604E+07
1.675100E-01  1.664969E+07
1.692300E-01  1.696436E+07
1.709600E-01  1.728314E+07
1.726900E-01  1.760335E+07
1.744100E-01  1.792684E+07
1.761400E-01  1.825197E+07
1.778700E-01  1.857936E+07
1.795900E-01  1.890797E+07
1.813200E-01  1.924048E+07
1.830500E-01  1.957463E+07
1.847700E-01  1.991104E+07
1.865000E-01  2.024867E+07
1.882300E-01  2.059020E+07
1.899500E-01  2.093255E+07
1.916800E-01  2.127900E+07
1.934100E-01  2.162545E+07
1.951300E-01  2.197395E+07
1.968600E-01  2.232655E+07
1.985900E-01  2.267915E+07
2.003100E-01  2.303585E+07
2.020400E-01  2.339460E+07
2.037700E-01  2.375335E+07
2.055000E-01  2.411415E+07
2.072200E-01  2.447905E+07
2.089500E-01  2.484395E+07
2.106800E-01  2.521295E+07
2.124000E-01  2.558400E+07
2.141300E-01  2.595505E+07
2.158600E-01  2.632815E+07
2.175800E-01  2.670330E+07
2.193100E-01  2.708050E+07
2.210400E-01  2.745975E+07
2.227600E-01  2.784105E+07
2.244900E-01  2.822440E+07
2.262200E-01  2.860980E+07
2.279400E-01  2.899725E+07
2.296700E-01  2.938675E+07
2.314000E-01  2.977625E+07
2.331200E-01  3.016780E+07
2.348500E-01  3.056140E+07
2.365800E-01  3.095705E+07
2.383000E-01  3.135475E+07
2.400300E-01  3.175245E+07
2.417600E-01  3.215425E+07
2.434800E-01  3.255810E+07
2.452100E-01  3.296195E+07
2.469400E-01  3.336785E+07
2.486600E-01  3.377375E+07
2.503900E-01  3.418375E+07
2.521200E-01  3.459375E+07
2.538400E-01  3.500580E+07
2.555700E-01  3.541785E+07
2.573000E-01  3.583400E+07
2.590200E-01  3.625220E+07
2.607500E-01  3.667040E+07
2.624800E-01  3.709065E+07
2.642100E-01  3.751295E+07
2.659300E-01  3.793525E+07
2.676600E-01  3.835960E+07
2.693900E-01  3.878395E+07
2.711100E-01  3.921240E+07
2.728400E-01  3.964085E+07
2.745700E-01  4.006930E+07
2.762900E-01  4.050185E+07
2.780200E-01  4.093440E+07
2.797500E-01  4.137105E+07
2.814700E-01  4.180565E+07
2.832000E-01  4.224230E+07
2.849300E-01  4.268100E+07
2.866500E-01  4.312175E+07
2.883800E-01  4.356045E+07
2.901100E-01  4.400120E+07
2.918300E-01  4.444605E+07
2.935600E-01  4.489090E+07
2.952900E-01  4.533780E+07
2.970100E-01  4.578470E+07
2.987400E-01  4.623365E+07
3.004700E-01  4.668260E+07
3.021900E-01  4.713155E+07
3.039200E-01  4.758460E+07
3.056500E-01  4.803765E+07
3.073700E-01  4.849070E+07
3.091000E-01  4.894375E+07
3.108300E-01  4.940295E+07
3.125500E-01  4.986010E+07
3.142800E-01  5.031930E+07
3.160100E-01  5.077850E+07
3.177300E-01  5.123770E+07
3.194600E-01  5.169895E+07
3.211900E-01  5.216225E+07
3.229200E-01  5.262555E+07
3.246400E-01  5.309090E+07
3.263700E-01  5.355625E+07
3.281000E-01  5.402160E+07
3.298200E-01  5.448900E+07
3.315500E-01  5.496050E+07
3.332800E-01  5.542995E+07
3.350000E-01  5.589735E+07
3.367300E-01  5.636885E+07
3.384600E-01  5.684240E+07
3.401800E-01  5.731390E+07
3.419100E-01  5.778745E+07
3.436400E-01  5.826100E+07
3.453600E-01  5.873660E+07
3.470900E-01  5.921220E+07
3.488200E-01  5.968985E+07
3.505400E-01  6.016750E+07
3.522700E-01  6.064515E+07
3.540000E-01  6.112485E+07
3.557200E-01  6.160455E+07
3.574500E-01  6.208630E+07
3.591800E-01  6.256600E+07
3.609000E-01  6.304775E+07
3.626300E-01  6.353155E+07
3.643600E-01  6.401535E+07
3.660800E-01  6.449915E+07
3.678100E-01  6.498295E+07
3.695400E-01  6.546880E+07
3.712600E-01  6.595465E+07
3.729900E-01  6.644050E+07
3.747200E-01  6.692840E+07
3.764400E-01  6.741630E+07
3.781700E-01  6.790420E+07
3.799000E-01  6.839210E+07
3.816300E-01  6.888205E+07
3.833500E-01  6.937405E+07
3.850800E-01  6.986400E+07
3.868100E-01  7.035395E+07
3.885300E-01  7.084390E+07
3.902600E-01  7.133590E+07
3.919900E-01  7.182790E+07
3.937100E-01  7.232195E+07
3.954400E-01  7.281395E+07
3.971700E-01  7.330800E+07
3.988900E-01  7.380410E+07
4.006200E-01  7.429815E+07
4.023500E-01  7.479220E+07
4.040700E-01  7.528625E+07
4.058000E-01  7.578030E+07
4.075300E-01  7.627640E+07
4.092500E-01  7.677250E+07
4.109800E-01  7.726860E+07
4.127100E-01  7.776675E+07
4.144300E-01  7.826490E+07
4.161600E-01  7.876305E+07
4.178900E-01  7.926120E+07
4.196100E-01  7.975730E+07
4.213400E-01  8.025545E+07
4.230700E-01  8.075360E+07
4.247900E-01  8.125175E+07
4.265200E-01  8.175195E+07
4.282500E-01  8.225010E+07
4.299700E-01  8.274825E+07
4.317000E-01  8.324845E+07
4.334300E-01  8.374660E+07
4.351500E-01  8.424885E+07
4.368800E-01  8.474700E+07
4.386100E-01  8.524720E+07
4.403300E-01  8.574535E+07
4.420600E-01  8.624760E+07
4.437900E-01  8.674780E+07
4.455200E-01  8.724595E+07
4.472400E-01  8.774615E+07
4.489700E-01  8.824840E+07
4.507000E-01  8.874860E+07
4.524200E-01  8.924880E+07
4.541500E-01  8.974900E+07
4.558800E-01  9.024920E+07
4.576000E-01  9.074940E+07
4.593300E-01  9.124960E+07
4.610600E-01  9.175185E+07
4.627800E-01  9.225000E+07
4.645100E-01  9.275020E+07
4.662400E-01  9.325040E+07
4.679600E-01  9.375265E+07
4.696900E-01  9.425285E+07
4.714200E-01  9.475305E+07
4.731400E-01  9.525120E+07
4.748700E-01  9.574935E+07
4.766000E-01  9.624955E+07
4.783200E-01  9.674975E+07
4.800500E-01  9.724790E+07
4.817800E-01  9.774605E+07
4.835000E-01  9.824625E+07
4.852300E-01  9.874440E+07
4.869600E-01  9.924460E+07
4.886800E-01  9.974275E+07
4.904100E-01  1.002388E+08
4.921400E-01  1.007370E+08
4.938600E-01  1.012352E+08
4.955900E-01  1.017333E+08
4.973200E-01  1.022294E+08
4.990400E-01  1.027255E+08
5.007700E-01  1.032216E+08
5.025000E-01  1.037198E+08
5.042300E-01  1.042158E+08
5.059500E-01  1.047120E+08
5.076800E-01  1.052040E+08
5.094100E-01  1.056980E+08
5.111300E-01  1.061920E+08
5.128600E-01  1.066861E+08
5.145900E-01  1.071802E+08
5.163100E-01  1.076722E+08
5.180400E-01  1.081662E+08
5.197700E-01  1.086582E+08
5.214900E-01  1.091522E+08
5.232200E-01  1.096443E+08
5.249500E-01  1.101342E+08
5.266700E-01  1.106242E+08
5.284000E-01  1.111141E+08
5.301300E-01  1.116040E+08
5.318500E-01  1.120920E+08
5.335800E-01  1.125819E+08
5.353100E-01  1.130698E+08
5.370300E-01  1.135577E+08
5.387600E-01  1.140456E+08
5.404900E-01  1.145335E+08
5.422100E-01  1.150173E+08
5.439400E-01  1.155011E+08
5.456700E-01  1.159870E+08
5.473900E-01  1.164708E+08
5.491200E-01  1.169545E+08
5.508500E-01  1.174363E+08
5.525700E-01  1.179201E+08
5.543000E-01  1.184018E+08
5.560300E-01  1.188836E+08
5.577500E-01  1.193653E+08
5.594800E-01  1.198450E+08
5.612100E-01  1.203227E+08
5.629400E-01  1.208024E+08
5.646600E-01  1.212800E+08
5.663900E-01  1.217577E+08
5.681200E-01  1.222333E+08
5.698400E-01  1.227089E+08
5.715700E-01  1.231845E+08
5.733000E-01  1.236601E+08
5.750200E-01  1.241336E+08
5.767500E-01  1.246052E+08
5.784800E-01  1.250766E+08
5.802000E-01  1.255482E+08
5.819300E-01  1.260196E+08
5.836600E-01  1.264891E+08
5.853800E-01  1.269565E+08
5.871100E-01  1.274260E+08
5.888400E-01  1.278934E+08
5.905600E-01  1.283608E+08
5.922900E-01  1.288261E+08
5.940200E-01  1.292894E+08
5.957400E-01  1.297527E+08
5.974700E-01  1.302160E+08
5.992000E-01  1.306793E+08
6.009200E-01  1.311406E+08
6.026500E-01  1.315998E+08
6.043800E-01  1.320590E+08
6.061000E-01  1.325202E+08
6.078300E-01  1.329774E+08
6.095600E-01  1.334345E+08
6.112800E-01  1.338896E+08
6.130100E-01  1.343447E+08
6.147400E-01  1.347978E+08
6.164600E-01  1.352508E+08
6.181900E-01  1.357018E+08
6.199200E-01  1.361528E+08
6.216500E-01  1.366038E+08
6.233700E-01  1.370528E+08
6.251000E-01  1.374996E+08
6.268300E-01  1.379466E+08
6.285500E-01  1.383934E+08
6.302800E-01  1.388362E+08
6.320100E-01  1.392811E+08
6.337300E-01  1.397260E+08
6.354600E-01  1.401646E+08
6.371900E-01  1.406054E+08
6.389100E-01  1.410441E+08
6.406400E-01  1.414848E+08
6.423700E-01  1.419215E+08
6.440900E-01  1.423582E+08
6.458200E-01  1.427928E+08
6.475500E-01  1.432274E+08
6.492700E-01  1.436599E+08
6.510000E-01  1.440924E+08
6.527300E-01  1.445209E+08
6.544500E-01  1.449494E+08
6.561800E-01  1.453778E+08
6.579100E-01  1.458062E+08
6.596300E-01  1.462326E+08
6.613600E-01  1.466590E+08
6.630900E-01  1.470814E+08
6.648100E-01  1.475016E+08
6.665400E-01  1.479218E+08
6.682700E-01  1.483421E+08
6.699900E-01  1.487603E+08
6.717200E-01  1.491785E+08
6.734500E-01  1.495946E+08
6.751700E-01  1.500108E+08
6.769000E-01  1.504249E+08
6.786300E-01  1.508370E+08
6.803600E-01  1.512470E+08
6.820800E-01  1.516570E+08
6.838100E-01  1.520649E+08
6.855400E-01  1.524708E+08
6.872600E-01  1.528767E+08
6.889900E-01  1.532826E+08
6.907200E-01  1.536844E+08
6.924400E-01  1.540862E+08
6.941700E-01  1.544880E+08
6.959000E-01  1.548878E+08
6.976200E-01  1.552834E+08
6.993500E-01  1.556790E+08
7.010800E-01  1.560747E+08
7.028000E-01  1.564704E+08
7.045300E-01  1.568619E+08
7.062600E-01  1.572514E+08
7.079800E-01  1.576409E+08
7.097100E-01  1.580304E+08
7.114400E-01  1.584158E+08
7.131600E-01  1.588032E+08
7.148900E-01  1.591866E+08
7.166200E-01  1.595679E+08
7.183400E-01  1.599492E+08
7.200700E-01  1.603284E+08
7.218000E-01  1.607056E+08
7.235200E-01  1.610828E+08
7.252500E-01  1.614560E+08
7.269800E-01  1.618311E+08
7.287000E-01  1.622042E+08
7.304300E-01  1.625752E+08
7.321600E-01  1.629442E+08
7.338800E-01  1.633112E+08
7.356100E-01  1.636761E+08
7.373400E-01  1.640410E+08
7.390600E-01  1.644038E+08
7.407900E-01  1.647646E+08
7.425200E-01  1.651254E+08
7.442500E-01  1.654842E+08
7.459700E-01  1.658409E+08
7.477000E-01  1.661976E+08
7.494300E-01  1.665502E+08
7.511500E-01  1.669028E+08
7.528800E-01  1.672513E+08
7.546100E-01  1.675998E+08
7.563300E-01  1.679483E+08
7.580600E-01  1.682927E+08
7.597900E-01  1.686371E+08
7.615100E-01  1.689794E+08
7.632400E-01  1.693198E+08
7.649700E-01  1.696600E+08
7.666900E-01  1.699962E+08
7.684200E-01  1.703324E+08
7.701500E-01  1.706666E+08
7.718700E-01  1.710008E+08
7.736000E-01  1.713308E+08
7.753300E-01  1.716588E+08
7.770500E-01  1.719868E+08
7.787800E-01  1.723128E+08
7.805100E-01  1.726366E+08
7.822300E-01  1.729606E+08
7.839600E-01  1.732804E+08
7.856900E-01  1.736002E+08
7.874100E-01  1.739179E+08
7.891400E-01  1.742336E+08
7.908700E-01  1.745472E+08
7.925900E-01  1.748588E+08
7.943200E-01  1.751684E+08
7.960500E-01  1.754780E+08
7.977700E-01  1.757854E+08
7.995000E-01  1.760909E+08
8.012300E-01  1.763922E+08
8.029600E-01  1.766956E+08
8.046800E-01  1.769950E+08
8.064100E-01  1.772942E+08
8.081400E-01  1.775894E+08
8.098600E-01  1.778826E+08
8.115900E-01  1.781758E+08
8.133200E-01  1.784668E+08
8.150400E-01  1.787559E+08
8.167700E-01  1.790450E+08
8.185000E-01  1.793299E+08
8.202200E-01  1.796128E+08
8.219500E-01  1.798957E+08
8.236800E-01  1.801745E+08
8.254000E-01  1.804533E+08
8.271300E-01  1.807300E+08
8.288600E-01  1.810048E+08
8.305800E-01  1.812774E+08
8.323100E-01  1.815480E+08
8.340400E-01  1.818166E+08
8.357600E-01  1.820830E+08
8.374900E-01  1.823475E+08
8.392200E-01  1.826120E+08
8.409400E-01  1.828723E+08
8.426700E-01  1.831326E+08
8.444000E-01  1.833889E+08
8.461200E-01  1.836452E+08
8.478500E-01  1.838994E+08
8.495800E-01  1.841515E+08
8.513000E-01  1.844016E+08
8.530300E-01  1.846496E+08
8.547600E-01  1.848956E+08
8.564800E-01  1.851396E+08
8.582100E-01  1.853815E+08
8.599400E-01  1.856214E+08
8.616700E-01  1.858592E+08
8.633900E-01  1.860970E+08
8.651200E-01  1.863306E+08
8.668500E-01  1.865644E+08
8.685700E-01  1.867940E+08
8.703000E-01  1.870236E+08
8.720300E-01  1.872490E+08
8.737500E-01  1.874746E+08
8.754800E-01  1.876980E+08
8.772100E-01  1.879174E+08
8.789300E-01  1.881367E+08
8.806600E-01  1.883540E+08
8.823900E-01  1.885672E+08
8.841100E-01  1.887804E+08
8.858400E-01  1.889916E+08
8.875700E-01  1.892006E+08
8.892900E-01  1.894056E+08
8.910200E-01  1.896106E+08
8.927500E-01  1.898136E+08
8.944700E-01  1.900145E+08
8.962000E-01  1.902113E+08
8.979300E-01  1.904081E+08
8.996500E-01  1.906028E+08
9.013800E-01  1.907956E+08
9.031100E-01  1.909862E+08
9.048300E-01  1.911748E+08
9.065600E-01  1.913593E+08
9.082900E-01  1.915438E+08
9.100100E-01  1.917262E+08
9.117400E-01  1.919066E+08
9.134700E-01  1.920830E+08
9.151900E-01  1.922592E+08
9.169200E-01  1.924335E+08
9.186500E-01  1.926057E+08
9.203800E-01  1.927738E+08
9.221000E-01  1.929419E+08
9.238300E-01  1.931059E+08
9.255600E-01  1.932699E+08
9.272800E-01  1.934318E+08
9.290100E-01  1.935897E+08
9.307400E-01  1.937455E+08
9.324600E-01  1.939013E+08
9.341900E-01  1.940550E+08
9.359200E-01  1.942047E+08
9.376400E-01  1.943523E+08
9.393700E-01  1.944999E+08
9.411000E-01  1.946434E+08
9.428200E-01  1.947848E+08
9.445500E-01  1.949263E+08
9.462800E-01  1.950636E+08
9.480000E-01  1.951990E+08
9.497300E-01  1.953322E+08
9.514600E-01  1.954634E+08
9.531800E-01  1.955926E+08
9.549100E-01  1.957196E+08
9.566400E-01  1.958447E+08
9.583600E-01  1.959656E+08
9.600900E-01  1.960866E+08
9.618200E-01  1.962055E+08
9.635400E-01  1.963224E+08
9.652700E-01  1.964351E+08
9.670000E-01  1.965478E+08
9.687200E-01  1.966565E+08
9.704500E-01  1.967652E+08
9.721800E-01  1.968697E+08
9.739000E-01  1.969722E+08
9.756300E-01  1.970726E+08
9.773600E-01  1.971710E+08
9.790800E-01  1.972674E+08
9.808100E-01  1.973617E+08
9.825400E-01  1.974519E+08
9.842700E-01  1.975421E+08
9.859900E-01  1.976282E+08
9.877200E-01  1.977143E+08
9.894500E-01  1.977984E+08
9.911700E-01  1.978783E+08
9.929000E-01  1.979562E+08
9.946300E-01  1.980320E+08
9.963500E-01  1.981058E+08
9.980800E-01  1.981796E+08
9.998100E-01  1.982494E+08
1.001500E+00  1.983170E+08
1.003300E+00  1.983806E+08
1.005000E+00  1.984441E+08
1.006700E+00  1.985056E+08
1.008400E+00  1.985650E+08
1.010200E+00  1.986184E+08
1.011900E+00  1.986737E+08
1.013600E+00  1.987229E+08
1.015300E+00  1.987742E+08
1.017100E+00  1.988213E+08
1.018800E+00  1.988684E+08
1.020500E+00  1.989094E+08
1.022300E+00  1.989504E+08
1.024000E+00  1.989874E+08
1.025700E+00  1.990242E+08
1.027400E+00  1.990570E+08
1.029200E+00  1.990898E+08
1.030900E+00  1.991165E+08
1.032600E+00  1.991432E+08
1.034300E+00  1.991678E+08
1.036100E+00  1.991903E+08
1.037800E+00  1.992088E+08
1.039500E+00  1.992272E+08
1.041200E+00  1.992416E+08
1.043000E+00  1.992559E+08
1.044700E+00  1.992662E+08
1.046400E+00  1.992744E+08
1.048200E+00  1.992805E+08
1.049900E+00  1.992846E+08
1.051600E+00  1.992866E+08
1.053300E+00  1.992866E+08
1.055100E+00  1.992826E+08
1.056800E+00  1.992764E+08
1.058500E+00  1.992682E+08
1.060200E+00  1.992600E+08
1.062000E+00  1.992456E+08
1.063700E+00  1.992313E+08
1.065400E+00  1.992149E+08
1.067100E+00  1.991944E+08
1.068900E+00  1.991739E+08
1.070600E+00  1.991493E+08
1.072300E+00  1.991226E+08
1.074100E+00  1.990960E+08
1.075800E+00  1.990632E+08
1.077500E+00  1.990324E+08
1.079200E+00  1.989956E+08
1.081000E+00  1.989586E+08
1.082700E+00  1.989176E+08
1.084400E+00  1.988746E+08
1.086100E+00  1.988295E+08
1.087900E+00  1.987844E+08
1.089600E+00  1.987332E+08
1.091300E+00  1.986840E+08
1.093100E+00  1.986286E+08
1.094800E+00  1.985712E+08
1.096500E+00  1.985118E+08
1.098200E+00  1.984523E+08
1.100000E+00  1.983888E+08
1.101700E+00  1.983232E+08
1.103400E+00  1.982534E+08
1.105100E+00  1.981838E+08
1.106900E+00  1.981100E+08
1.108600E+00  1.980362E+08
1.110300E+00  1.979562E+08
1.112000E+00  1.978762E+08
1.113800E+00  1.977942E+08
1.115500E+00  1.977122E+08
1.117200E+00  1.976241E+08
1.119000E+00  1.975380E+08
1.120700E+00  1.974416E+08
1.122400E+00  1.973474E+08
1.124100E+00  1.972510E+08
1.125900E+00  1.971546E+08
1.127600E+00  1.970542E+08
1.129300E+00  1.969538E+08
1.131000E+00  1.968451E+08
1.132800E+00  1.967364E+08
1.134500E+00  1.966258E+08
1.136200E+00  1.965150E+08
1.137900E+00  1.964002E+08
1.139700E+00  1.962854E+08
1.141400E+00  1.961624E+08
1.143100E+00  1.960394E+08
1.144900E+00  1.959144E+08
1.146600E+00  1.957914E+08
1.148300E+00  1.956582E+08
1.150000E+00  1.955249E+08
1.151800E+00  1.953916E+08
1.153500E+00  1.952564E+08
1.155200E+00  1.951190E+08
1.156900E+00  1.949796E+08
1.158700E+00  1.948340E+08
1.160400E+00  1.946864E+08
1.162100E+00  1.945388E+08
1.163800E+00  1.943912E+08
1.165600E+00  1.942396E+08
1.167300E+00  1.940858E+08
1.169000E+00  1.939259E+08
1.170800E+00  1.937640E+08
1.172500E+00  1.936020E+08
1.174200E+00  1.934400E+08
1.175900E+00  1.932740E+08
1.177700E+00  1.931059E+08
1.179400E+00  1.929316E+08
1.181100E+00  1.927554E+08
1.182800E+00  1.925790E+08
1.184600E+00  1.924028E+08
1.186300E+00  1.922244E+08
1.188000E+00  1.920440E+08
1.189800E+00  1.918554E+08
1.191500E+00  1.916648E+08
1.193200E+00  1.914741E+08
1.194900E+00  1.912834E+08
1.196700E+00  1.910846E+08
1.198400E+00  1.908858E+08
1.200100E+00  1.906848E+08
1.201800E+00  1.904860E+08
1.203600E+00  1.902830E+08
1.205300E+00  1.900801E+08
1.207000E+00  1.898669E+08
1.208700E+00  1.896516E+08
1.210500E+00  1.894384E+08
1.212200E+00  1.892252E+08
1.213900E+00  1.890080E+08
1.215700E+00  1.887906E+08
1.217400E+00  1.885631E+08
1.219100E+00  1.883356E+08
1.220800E+00  1.881080E+08
1.222600E+00  1.878804E+08
1.224300E+00  1.876508E+08
1.226000E+00  1.874192E+08
1.227700E+00  1.871773E+08
1.229500E+00  1.869334E+08
1.231200E+00  1.866935E+08
1.232900E+00  1.864516E+08
1.234600E+00  1.862015E+08
1.236400E+00  1.859473E+08
1.238100E+00  1.856972E+08
1.239800E+00  1.854450E+08
1.241600E+00  1.851908E+08
1.243300E+00  1.849366E+08
1.245000E+00  1.846722E+08
1.246700E+00  1.844057E+08
1.248500E+00  1.841412E+08
1.250200E+00  1.838768E+08
1.251900E+00  1.836103E+08
1.253600E+00  1.833397E+08
1.255400E+00  1.830609E+08
1.257100E+00  1.827800E+08
1.258800E+00  1.825012E+08
1.260500E+00  1.822245E+08
1.262300E+00  1.819416E+08
1.264000E+00  1.816608E+08
1.265700E+00  1.813676E+08
1.267500E+00  1.810724E+08
1.269200E+00  1.807792E+08
1.270900E+00  1.804861E+08
1.272600E+00  1.801909E+08
1.274400E+00  1.798957E+08
1.276100E+00  1.795882E+08
1.277800E+00  1.792807E+08
