# (E [MeV])  (Flux [1/MeV/cm^2/s]
1.878400E-02  1.177289E-02
3.754900E-02  4.696629E-02
5.631400E-02  1.054318E-01
7.507900E-02  1.870193E-01
9.384400E-02  2.916131E-01
1.126100E-01  4.190777E-01
1.313700E-01  5.692134E-01
1.501400E-01  7.420123E-01
1.689000E-01  9.372510E-01
1.876700E-01  1.154706E+00
2.064300E-01  1.394505E+00
2.252000E-01  1.656329E+00
2.439600E-01  1.939938E+00
2.627300E-01  2.245492E+00
2.814900E-01  2.572433E+00
3.002600E-01  2.921079E+00
3.190200E-01  3.291191E+00
3.377900E-01  3.682371E+00
3.565500E-01  4.094777E+00
3.753200E-01  4.528171E+00
3.940800E-01  4.982313E+00
4.128500E-01  5.457283E+00
4.316100E-01  5.952601E+00
4.503800E-01  6.468588E+00
4.691400E-01  7.005004E+00
4.879100E-01  7.561369E+00
5.066700E-01  8.138004E+00
5.254400E-01  8.734908E+00
5.442000E-01  9.350166E+00
5.629700E-01  9.986970E+00
5.817300E-01  1.064213E+01
6.005000E-01  1.131724E+01
6.192600E-01  1.201070E+01
6.380300E-01  1.272411E+01
6.567900E-01  1.345667E+01
6.755600E-01  1.420759E+01
6.943200E-01  1.497766E+01
7.130900E-01  1.576688E+01
7.318500E-01  1.657366E+01
7.506200E-01  1.739959E+01
7.693800E-01  1.824388E+01
7.881500E-01  1.910572E+01
8.069100E-01  1.998511E+01
8.256800E-01  2.088366E+01
8.444400E-01  2.179817E+01
8.632100E-01  2.273183E+01
8.819700E-01  2.368225E+01
9.007400E-01  2.465102E+01
9.195000E-01  2.563655E+01
9.382700E-01  2.663804E+01
9.570300E-01  2.765788E+01
9.758000E-01  2.869448E+01
9.945600E-01  2.974705E+01
1.013300E+00  3.081876E+01
1.032100E+00  3.190404E+01
1.050900E+00  3.300608E+01
1.069600E+00  3.412408E+01
1.088400E+00  3.525803E+01
1.107200E+00  3.641354E+01
1.125900E+00  3.758021E+01
1.144700E+00  3.876205E+01
1.163400E+00  3.995985E+01
1.182200E+00  4.117281E+01
1.201000E+00  4.240093E+01
1.219700E+00  4.365060E+01
1.238500E+00  4.490984E+01
1.257300E+00  4.618345E+01
1.276000E+00  4.747222E+01
1.294800E+00  4.877615E+01
1.313600E+00  5.009445E+01
1.332300E+00  5.143349E+01
1.351100E+00  5.278211E+01
1.369900E+00  5.414350E+01
1.388600E+00  5.551925E+01
1.407400E+00  5.690857E+01
1.426200E+00  5.831305E+01
1.444900E+00  5.973828E+01
1.463700E+00  6.116989E+01
1.482500E+00  6.261507E+01
1.501200E+00  6.407381E+01
1.520000E+00  6.554612E+01
1.538700E+00  6.703120E+01
1.557500E+00  6.853623E+01
1.576300E+00  7.004844E+01
1.595000E+00  7.157342E+01
1.613800E+00  7.311037E+01
1.632600E+00  7.466008E+01
1.651300E+00  7.622257E+01
1.670100E+00  7.779782E+01
1.688900E+00  7.939382E+01
1.707600E+00  8.098902E+01
1.726400E+00  8.260896E+01
1.745200E+00  8.422890E+01
1.763900E+00  8.586480E+01
1.782700E+00  8.750868E+01
1.801500E+00  8.918448E+01
1.820200E+00  9.085230E+01
1.839000E+00  9.253608E+01
1.857800E+00  9.422784E+01
1.876500E+00  9.593556E+01
1.895300E+00  9.765126E+01
1.914000E+00  9.938292E+01
1.932800E+00  1.011226E+02
1.951600E+00  1.028702E+02
1.970300E+00  1.046338E+02
1.989100E+00  1.063973E+02
2.007900E+00  1.081849E+02
2.026600E+00  1.099804E+02
2.045400E+00  1.117838E+02
2.064200E+00  1.135873E+02
2.082900E+00  1.154147E+02
2.101700E+00  1.172422E+02
2.120500E+00  1.190855E+02
2.139200E+00  1.209449E+02
2.158000E+00  1.228122E+02
2.176800E+00  1.246715E+02
2.195500E+00  1.265548E+02
2.214300E+00  1.284461E+02
2.233100E+00  1.303453E+02
2.251800E+00  1.322605E+02
2.270600E+00  1.341757E+02
2.289300E+00  1.360989E+02
2.308100E+00  1.380301E+02
2.326900E+00  1.399772E+02
2.345600E+00  1.419243E+02
2.364400E+00  1.438874E+02
2.383200E+00  1.458584E+02
2.401900E+00  1.478375E+02
2.420700E+00  1.498165E+02
2.439500E+00  1.518115E+02
2.458200E+00  1.538145E+02
2.477000E+00  1.558175E+02
2.495800E+00  1.578444E+02
2.514500E+00  1.598713E+02
2.533300E+00  1.618982E+02
2.552100E+00  1.639331E+02
2.570800E+00  1.659840E+02
2.589600E+00  1.680349E+02
2.608400E+00  1.701017E+02
2.627100E+00  1.721685E+02
2.645900E+00  1.742433E+02
2.664600E+00  1.763261E+02
2.683400E+00  1.784168E+02
2.702200E+00  1.805076E+02
2.720900E+00  1.826143E+02
2.739700E+00  1.847210E+02
2.758500E+00  1.868357E+02
2.777200E+00  1.889584E+02
2.796000E+00  1.910731E+02
2.814800E+00  1.932118E+02
2.833500E+00  1.953584E+02
2.852300E+00  1.975050E+02
2.871100E+00  1.996516E+02
2.889800E+00  2.018062E+02
2.908600E+00  2.039608E+02
2.927400E+00  2.061234E+02
2.946100E+00  2.083099E+02
2.964900E+00  2.104885E+02
2.983700E+00  2.126670E+02
3.002400E+00  2.148535E+02
3.021200E+00  2.170480E+02
3.039900E+00  2.192425E+02
3.058700E+00  2.214530E+02
3.077500E+00  2.236555E+02
3.096200E+00  2.258739E+02
3.115000E+00  2.280844E+02
3.133800E+00  2.303028E+02
3.152500E+00  2.325292E+02
3.171300E+00  2.347556E+02
3.190100E+00  2.369980E+02
3.208800E+00  2.392324E+02
3.227600E+00  2.414748E+02
3.246400E+00  2.437172E+02
3.265100E+00  2.459675E+02
3.283900E+00  2.482099E+02
3.302700E+00  2.504842E+02
3.321400E+00  2.527426E+02
3.340200E+00  2.550009E+02
3.359000E+00  2.572592E+02
3.377700E+00  2.595335E+02
3.396500E+00  2.617999E+02
3.415200E+00  2.640901E+02
3.434000E+00  2.663644E+02
3.452800E+00  2.686467E+02
3.471500E+00  2.709290E+02
3.490300E+00  2.732192E+02
3.509100E+00  2.755015E+02
3.527800E+00  2.778077E+02
3.546600E+00  2.800980E+02
3.565400E+00  2.823962E+02
3.584100E+00  2.846945E+02
3.602900E+00  2.869927E+02
3.621700E+00  2.892910E+02
3.640400E+00  2.916131E+02
3.659200E+00  2.939194E+02
3.678000E+00  2.962256E+02
3.696700E+00  2.985318E+02
3.715500E+00  3.008460E+02
3.734300E+00  3.031522E+02
3.753000E+00  3.054824E+02
3.771800E+00  3.077966E+02
3.790500E+00  3.101188E+02
3.809300E+00  3.124330E+02
3.828100E+00  3.147551E+02
3.846800E+00  3.170693E+02
3.865600E+00  3.194075E+02
3.884400E+00  3.217297E+02
3.903100E+00  3.240518E+02
3.921900E+00  3.263740E+02
3.940700E+00  3.286962E+02
3.959400E+00  3.310184E+02
3.978200E+00  3.333485E+02
3.997000E+00  3.356787E+02
4.015700E+00  3.380089E+02
4.034500E+00  3.403390E+02
4.053300E+00  3.426692E+02
4.072000E+00  3.449993E+02
4.090800E+00  3.473215E+02
4.109500E+00  3.496597E+02
4.128300E+00  3.519898E+02
4.147100E+00  3.543120E+02
4.165800E+00  3.566342E+02
4.184600E+00  3.589643E+02
4.203400E+00  3.612865E+02
4.222100E+00  3.636247E+02
4.240900E+00  3.659468E+02
4.259700E+00  3.682690E+02
4.278400E+00  3.705992E+02
4.297200E+00  3.729134E+02
4.316000E+00  3.752356E+02
4.334700E+00  3.775657E+02
4.353500E+00  3.798879E+02
4.372300E+00  3.822101E+02
4.391000E+00  3.845243E+02
4.409800E+00  3.868385E+02
4.428600E+00  3.891447E+02
4.447300E+00  3.914749E+02
4.466100E+00  3.937891E+02
4.484800E+00  3.960953E+02
4.503600E+00  3.984015E+02
4.522400E+00  4.007077E+02
4.541100E+00  4.030139E+02
4.559900E+00  4.053281E+02
4.578700E+00  4.076264E+02
4.597400E+00  4.099246E+02
4.616200E+00  4.122229E+02
4.635000E+00  4.145131E+02
4.653700E+00  4.168114E+02
4.672500E+00  4.191016E+02
4.691300E+00  4.213919E+02
4.710000E+00  4.236821E+02
4.728800E+00  4.259564E+02
4.747600E+00  4.282387E+02
4.766300E+00  4.305130E+02
4.785100E+00  4.327873E+02
4.803900E+00  4.350696E+02
4.822600E+00  4.373439E+02
4.841400E+00  4.396022E+02
4.860100E+00  4.418686E+02
4.878900E+00  4.441269E+02
4.897700E+00  4.463852E+02
4.916400E+00  4.486516E+02
4.935200E+00  4.509019E+02
4.954000E+00  4.531443E+02
4.972700E+00  4.553867E+02
4.991500E+00  4.576211E+02
5.010300E+00  4.598635E+02
5.029000E+00  4.621058E+02
5.047800E+00  4.643402E+02
5.066600E+00  4.665587E+02
5.085300E+00  4.687771E+02
5.104100E+00  4.709956E+02
5.122900E+00  4.732060E+02
5.141600E+00  4.754324E+02
5.160400E+00  4.776349E+02
5.179200E+00  4.798294E+02
5.197900E+00  4.820319E+02
5.216700E+00  4.842264E+02
5.235400E+00  4.864129E+02
5.254200E+00  4.886074E+02
5.273000E+00  4.907860E+02
5.291700E+00  4.929645E+02
5.310500E+00  4.951271E+02
5.329300E+00  4.972976E+02
5.348000E+00  4.994602E+02
5.366800E+00  5.016228E+02
5.385600E+00  5.037694E+02
5.404300E+00  5.059240E+02
5.423100E+00  5.080627E+02
5.441900E+00  5.102013E+02
5.460600E+00  5.123320E+02
5.479400E+00  5.144626E+02
5.498200E+00  5.165853E+02
5.516900E+00  5.187080E+02
5.535700E+00  5.208147E+02
5.554500E+00  5.229214E+02
5.573200E+00  5.250202E+02
5.592000E+00  5.271109E+02
5.610700E+00  5.292097E+02
5.629500E+00  5.312924E+02
5.648300E+00  5.333752E+02
5.667000E+00  5.354420E+02
5.685800E+00  5.375089E+02
5.704600E+00  5.395677E+02
5.723300E+00  5.416345E+02
5.742100E+00  5.436854E+02
5.760900E+00  5.457283E+02
5.779600E+00  5.477632E+02
5.798400E+00  5.497901E+02
5.817200E+00  5.518170E+02
5.835900E+00  5.538439E+02
5.854700E+00  5.558549E+02
5.873500E+00  5.578579E+02
5.892200E+00  5.598608E+02
5.911000E+00  5.618479E+02
5.929800E+00  5.638349E+02
5.948500E+00  5.658219E+02
5.967300E+00  5.678009E+02
5.986000E+00  5.697640E+02
6.004800E+00  5.717271E+02
6.023600E+00  5.736822E+02
6.042300E+00  5.756213E+02
6.061100E+00  5.775685E+02
6.079900E+00  5.794996E+02
6.098600E+00  5.814308E+02
6.117400E+00  5.833460E+02
6.136200E+00  5.852612E+02
6.154900E+00  5.871684E+02
6.173700E+00  5.890676E+02
6.192500E+00  5.909589E+02
6.211200E+00  5.928422E+02
6.230000E+00  5.947095E+02
6.248800E+00  5.965848E+02
6.267500E+00  5.984441E+02
6.286300E+00  6.002955E+02
6.305100E+00  6.021469E+02
6.323800E+00  6.039902E+02
6.342600E+00  6.058177E+02
6.361300E+00  6.076451E+02
6.380100E+00  6.094565E+02
6.398900E+00  6.112600E+02
6.417600E+00  6.130715E+02
6.436400E+00  6.148670E+02
6.455200E+00  6.166465E+02
6.473900E+00  6.184261E+02
6.492700E+00  6.201976E+02
6.511500E+00  6.219532E+02
6.530200E+00  6.237088E+02
6.549000E+00  6.254564E+02
6.567800E+00  6.271961E+02
6.586500E+00  6.289198E+02
6.605300E+00  6.306355E+02
6.624100E+00  6.323512E+02
6.642800E+00  6.340589E+02
6.661600E+00  6.357586E+02
6.680400E+00  6.374424E+02
6.699100E+00  6.391182E+02
6.717900E+00  6.407860E+02
6.736600E+00  6.424459E+02
6.755400E+00  6.441057E+02
6.774200E+00  6.457496E+02
6.792900E+00  6.473855E+02
6.811700E+00  6.490134E+02
6.830500E+00  6.506333E+02
6.849200E+00  6.522453E+02
6.868000E+00  6.538493E+02
6.886800E+00  6.554453E+02
6.905500E+00  6.570253E+02
6.924300E+00  6.585974E+02
6.943100E+00  6.601615E+02
6.961800E+00  6.617176E+02
6.980600E+00  6.632657E+02
6.999400E+00  6.648058E+02
7.018100E+00  6.663380E+02
7.036900E+00  6.678542E+02
7.055700E+00  6.693624E+02
7.074400E+00  6.708626E+02
7.093200E+00  6.723549E+02
7.111900E+00  6.738392E+02
7.130700E+00  6.753155E+02
7.149500E+00  6.767838E+02
7.168200E+00  6.782362E+02
7.187000E+00  6.796805E+02
7.205800E+00  6.811090E+02
7.224500E+00  6.825374E+02
7.243300E+00  6.839578E+02
7.262100E+00  6.853623E+02
7.280800E+00  6.867588E+02
7.299600E+00  6.881473E+02
7.318400E+00  6.895279E+02
7.337100E+00  6.908924E+02
7.355900E+00  6.922570E+02
7.374700E+00  6.936056E+02
7.393400E+00  6.949383E+02
7.412200E+00  6.962710E+02
7.431000E+00  6.975956E+02
7.449700E+00  6.989044E+02
7.468500E+00  7.002051E+02
7.487200E+00  7.014899E+02
7.506000E+00  7.027667E+02
7.524800E+00  7.040355E+02
7.543500E+00  7.052963E+02
7.562300E+00  7.065492E+02
7.581100E+00  7.077941E+02
7.599800E+00  7.090150E+02
7.618600E+00  7.102360E+02
7.637400E+00  7.114489E+02
7.656100E+00  7.126459E+02
7.674900E+00  7.138349E+02
7.693700E+00  7.150080E+02
7.712400E+00  7.161731E+02
7.731200E+00  7.173382E+02
7.750000E+00  7.184793E+02
7.768700E+00  7.196125E+02
7.787500E+00  7.207456E+02
7.806300E+00  7.218628E+02
7.825000E+00  7.229641E+02
7.843800E+00  7.240573E+02
7.862500E+00  7.251426E+02
7.881300E+00  7.262119E+02
7.900100E+00  7.272733E+02
7.918800E+00  7.283346E+02
7.937600E+00  7.293720E+02
7.956400E+00  7.304014E+02
7.975100E+00  7.314229E+02
7.993900E+00  7.324283E+02
8.012700E+00  7.334258E+02
8.031400E+00  7.344154E+02
8.050200E+00  7.353969E+02
8.069000E+00  7.363625E+02
8.087700E+00  7.373121E+02
8.106500E+00  7.382617E+02
8.125300E+00  7.391954E+02
8.144000E+00  7.401131E+02
8.162800E+00  7.410308E+02
8.181600E+00  7.419245E+02
8.200300E+00  7.428183E+02
8.219100E+00  7.436961E+02
8.237800E+00  7.445659E+02
8.256600E+00  7.454198E+02
8.275400E+00  7.462736E+02
8.294100E+00  7.471036E+02
8.312900E+00  7.479255E+02
8.331700E+00  7.487395E+02
8.350400E+00  7.495454E+02
8.369200E+00  7.503355E+02
8.388000E+00  7.511095E+02
8.406700E+00  7.518756E+02
8.425500E+00  7.526337E+02
8.444300E+00  7.533758E+02
8.463000E+00  7.541100E+02
8.481800E+00  7.548362E+02
8.500600E+00  7.555464E+02
8.519300E+00  7.562486E+02
8.538100E+00  7.569349E+02
8.556900E+00  7.576132E+02
8.575600E+00  7.582835E+02
8.594400E+00  7.589379E+02
8.613100E+00  7.595843E+02
8.631900E+00  7.602147E+02
8.650700E+00  7.608371E+02
8.669400E+00  7.614436E+02
8.688200E+00  7.620421E+02
8.707000E+00  7.626247E+02
8.725700E+00  7.631992E+02
8.744500E+00  7.637658E+02
8.763300E+00  7.643164E+02
8.782000E+00  7.648591E+02
8.800800E+00  7.653857E+02
8.819600E+00  7.659044E+02
8.838300E+00  7.664072E+02
8.857100E+00  7.669019E+02
8.875900E+00  7.673887E+02
8.894600E+00  7.678595E+02
8.913400E+00  7.683224E+02
8.932100E+00  7.687693E+02
8.950900E+00  7.692082E+02
8.969700E+00  7.696311E+02
8.988400E+00  7.700461E+02
9.007200E+00  7.704451E+02
9.026000E+00  7.708361E+02
9.044700E+00  7.712111E+02
9.063500E+00  7.715782E+02
9.082300E+00  7.719373E+02
9.101000E+00  7.722805E+02
9.119800E+00  7.726156E+02
9.138600E+00  7.729348E+02
9.157300E+00  7.732381E+02
9.176100E+00  7.735413E+02
9.194900E+00  7.738286E+02
9.213600E+00  7.740999E+02
9.232400E+00  7.743632E+02
9.251200E+00  7.746106E+02
9.269900E+00  7.748500E+02
9.288700E+00  7.750735E+02
9.307400E+00  7.752889E+02
9.326200E+00  7.754964E+02
9.345000E+00  7.756879E+02
9.363700E+00  7.758635E+02
9.382500E+00  7.760390E+02
9.401300E+00  7.761907E+02
9.420000E+00  7.763343E+02
9.438800E+00  7.764700E+02
9.457600E+00  7.765897E+02
9.476300E+00  7.766934E+02
9.495100E+00  7.767971E+02
9.513900E+00  7.768849E+02
9.532600E+00  7.769567E+02
9.551400E+00  7.770126E+02
9.570200E+00  7.770685E+02
9.588900E+00  7.771084E+02
9.607700E+00  7.771323E+02
9.626500E+00  7.771403E+02
9.645200E+00  7.771483E+02
9.664000E+00  7.771403E+02
9.682700E+00  7.771243E+02
9.701500E+00  7.770924E+02
9.720300E+00  7.770445E+02
9.739000E+00  7.769887E+02
9.757800E+00  7.769248E+02
9.776600E+00  7.768450E+02
9.795300E+00  7.767493E+02
9.814100E+00  7.766455E+02
9.832900E+00  7.765338E+02
9.851600E+00  7.764061E+02
9.870400E+00  7.762625E+02
9.889200E+00  7.761188E+02
9.907900E+00  7.759592E+02
9.926700E+00  7.757837E+02
9.945500E+00  7.756001E+02
9.964200E+00  7.754006E+02
9.983000E+00  7.751932E+02
1.000200E+01  7.749777E+02
1.002100E+01  7.747463E+02
1.003900E+01  7.744989E+02
1.005800E+01  7.742356E+02
1.007700E+01  7.739722E+02
1.009600E+01  7.737009E+02
1.011400E+01  7.733977E+02
1.013300E+01  7.730944E+02
1.015200E+01  7.727832E+02
1.017100E+01  7.724560E+02
1.018900E+01  7.721288E+02
1.020800E+01  7.717777E+02
1.022700E+01  7.714027E+02
1.024600E+01  7.710356E+02
1.026400E+01  7.706525E+02
1.028300E+01  7.702535E+02
1.030200E+01  7.698386E+02
1.032100E+01  7.694316E+02
1.034000E+01  7.690007E+02
1.035800E+01  7.685618E+02
1.037700E+01  7.680989E+02
1.039600E+01  7.676281E+02
1.041500E+01  7.671573E+02
1.043300E+01  7.666785E+02
1.045200E+01  7.661837E+02
1.047100E+01  7.656650E+02
1.049000E+01  7.651304E+02
1.050800E+01  7.646037E+02
1.052700E+01  7.640611E+02
1.054600E+01  7.634945E+02
1.056500E+01  7.629199E+02
1.058300E+01  7.623374E+02
1.060200E+01  7.617628E+02
1.062100E+01  7.611643E+02
1.064000E+01  7.605339E+02
1.065900E+01  7.599035E+02
1.067700E+01  7.592731E+02
1.069600E+01  7.586267E+02
1.071500E+01  7.579723E+02
1.073400E+01  7.572940E+02
1.075200E+01  7.565998E+02
1.077100E+01  7.559055E+02
1.079000E+01  7.552112E+02
1.080900E+01  7.544851E+02
1.082700E+01  7.537429E+02
1.084600E+01  7.530167E+02
1.086500E+01  7.522666E+02
1.088400E+01  7.515165E+02
1.090200E+01  7.507345E+02
1.092100E+01  7.499365E+02
1.094000E+01  7.491464E+02
1.095900E+01  7.483484E+02
1.097800E+01  7.475265E+02
1.099600E+01  7.466806E+02
1.101500E+01  7.458507E+02
1.103400E+01  7.450048E+02
1.105300E+01  7.441510E+02
1.107100E+01  7.432732E+02
1.109000E+01  7.423714E+02
1.110900E+01  7.414856E+02
1.112800E+01  7.405839E+02
1.114600E+01  7.396822E+02
1.116500E+01  7.387405E+02
1.118400E+01  7.377829E+02
1.120300E+01  7.368413E+02
1.122100E+01  7.358917E+02
1.124000E+01  7.349181E+02
1.125900E+01  7.339126E+02
1.127800E+01  7.329231E+02
1.129700E+01  7.319336E+02
1.131500E+01  7.309281E+02
1.133400E+01  7.298907E+02
1.135300E+01  7.288373E+02
1.137200E+01  7.277999E+02
1.139000E+01  7.267546E+02
1.140900E+01  7.257012E+02
1.142800E+01  7.246159E+02
1.144700E+01  7.234987E+02
1.146500E+01  7.224134E+02
1.148400E+01  7.213122E+02
1.150300E+01  7.201790E+02
1.152200E+01  7.190219E+02
1.154000E+01  7.178968E+02
1.155900E+01  7.167556E+02
1.157800E+01  7.156065E+02
1.159700E+01  7.144255E+02
1.161600E+01  7.132125E+02
1.163400E+01  7.120315E+02
1.165300E+01  7.108424E+02
1.167200E+01  7.096215E+02
1.169100E+01  7.083686E+02
1.170900E+01  7.071477E+02
1.172800E+01  7.059108E+02
1.174700E+01  7.046739E+02
1.176600E+01  7.033971E+02
1.178400E+01  7.020884E+02
1.180300E+01  7.008275E+02
1.182200E+01  6.995428E+02
1.184100E+01  6.982500E+02
1.185900E+01  6.969253E+02
1.187800E+01  6.955687E+02
1.189700E+01  6.942520E+02
1.191600E+01  6.929194E+02
1.193500E+01  6.915548E+02
1.195300E+01  6.901583E+02
1.197200E+01  6.888017E+02
1.199100E+01  6.874291E+02
1.201000E+01  6.860566E+02
1.202800E+01  6.846361E+02
1.204700E+01  6.831917E+02
1.206600E+01  6.817873E+02
1.208500E+01  6.803668E+02
1.210300E+01  6.789384E+02
1.212200E+01  6.774781E+02
1.214100E+01  6.759858E+02
1.216000E+01  6.745334E+02
1.217800E+01  6.730651E+02
1.219700E+01  6.715729E+02
1.221600E+01  6.700407E+02
1.223500E+01  6.685484E+02
1.225400E+01  6.670482E+02
1.227200E+01  6.655320E+02
1.229100E+01  6.639919E+02
1.231000E+01  6.624118E+02
1.232900E+01  6.608717E+02
1.234700E+01  6.593315E+02
1.236600E+01  6.577435E+02
1.238500E+01  6.561316E+02
1.240400E+01  6.545595E+02
1.242200E+01  6.529795E+02
1.244100E+01  6.513914E+02
1.246000E+01  6.497635E+02
1.247900E+01  6.480957E+02
1.249700E+01  6.464837E+02
1.251600E+01  6.448558E+02
1.253500E+01  6.432279E+02
1.255400E+01  6.415601E+02
1.257300E+01  6.398524E+02
1.259100E+01  6.381925E+02
1.261000E+01  6.365247E+02
1.262900E+01  6.348170E+02
1.264800E+01  6.330694E+02
1.266600E+01  6.313856E+02
1.268500E+01  6.296858E+02
1.270400E+01  6.279701E+02
1.272300E+01  6.262305E+02
1.274100E+01  6.244430E+02
1.276000E+01  6.227113E+02
1.277900E+01  6.209717E+02
1.279800E+01  6.192241E+02
1.281700E+01  6.174445E+02
1.283500E+01  6.156091E+02
1.285400E+01  6.138376E+02
1.287300E+01  6.120580E+02
1.289200E+01  6.102466E+02
1.291000E+01  6.083792E+02
1.292900E+01  6.065758E+02
1.294800E+01  6.047643E+02
1.296700E+01  6.029528E+02
1.298500E+01  6.011015E+02
1.300400E+01  5.991943E+02
1.302300E+01  5.973509E+02
1.304200E+01  5.955075E+02
1.306000E+01  5.936242E+02
1.307900E+01  5.916931E+02
1.309800E+01  5.898178E+02
1.311700E+01  5.879425E+02
1.313600E+01  5.860592E+02
1.315400E+01  5.841360E+02
1.317300E+01  5.821649E+02
1.319200E+01  5.802657E+02
1.321100E+01  5.783585E+02
1.322900E+01  5.764353E+02
1.324800E+01  5.744802E+02
1.326700E+01  5.724692E+02
1.328600E+01  5.705381E+02
1.330400E+01  5.685910E+02
1.332300E+01  5.666119E+02
1.334200E+01  5.645690E+02
1.336100E+01  5.626060E+02
1.337900E+01  5.606349E+02
1.339800E+01  5.586559E+02
1.341700E+01  5.566449E+02
1.343600E+01  5.545701E+02
1.345500E+01  5.525751E+02
1.347300E+01  5.505721E+02
1.349200E+01  5.485612E+02
1.351100E+01  5.465183E+02
1.353000E+01  5.444195E+02
1.354800E+01  5.423926E+02
1.356700E+01  5.403577E+02
1.358600E+01  5.382909E+02
1.360500E+01  5.361602E+02
1.362300E+01  5.341094E+02
1.364200E+01  5.320585E+02
1.366100E+01  5.299917E+02
1.368000E+01  5.278930E+02
1.369800E+01  5.257384E+02
1.371700E+01  5.236556E+02
1.373600E+01  5.215728E+02
1.375500E+01  5.194581E+02
1.377400E+01  5.172796E+02
1.379200E+01  5.151808E+02
1.381100E+01  5.130741E+02
1.383000E+01  5.109594E+02
1.384900E+01  5.088208E+02
1.386700E+01  5.066103E+02
