# (E [MeV])  (Flux [1/MeV/cm^2/s]
1.318300E+01  5.530654E-02
1.415300E+01  5.795103E-02
1.512200E+01  6.061343E-02
1.609200E+01  6.337386E-02
1.706100E+01  6.609318E-02
1.803100E+01  6.817694E-02
1.900000E+01  7.026702E-02
1.997000E+01  7.248990E-02
2.093900E+01  7.468012E-02
2.190900E+01  7.591751E-02
2.287800E+01  7.704740E-02
2.384800E+01  7.817096E-02
2.481700E+01  7.914486E-02
2.578700E+01  8.008187E-02
2.675700E+01  8.104628E-02
2.772600E+01  8.316482E-02
2.869600E+01  8.571655E-02
2.966500E+01  8.824404E-02
3.063500E+01  8.823983E-02
3.160400E+01  8.685171E-02
3.257400E+01  8.548256E-02
3.354300E+01  8.497032E-02
3.451300E+01  8.518428E-02
3.548200E+01  8.539719E-02
3.645200E+01  8.561115E-02
3.742100E+01  8.582300E-02
3.839100E+01  8.579455E-02
3.936000E+01  8.540667E-02
4.033000E+01  8.501986E-02
4.130000E+01  8.463198E-02
4.226900E+01  8.412185E-02
4.323900E+01  8.328813E-02
4.420800E+01  8.245442E-02
4.517800E+01  8.162176E-02
4.614700E+01  8.078805E-02
4.711700E+01  7.978253E-02
4.808600E+01  7.764396E-02
4.905600E+01  7.549380E-02
5.002500E+01  7.334154E-02
5.099500E+01  7.119032E-02
5.196400E+01  6.904016E-02
5.293400E+01  6.709448E-02
5.390400E+01  6.561572E-02
5.487300E+01  6.440994E-02
5.584300E+01  6.320311E-02
5.681200E+01  6.199628E-02
5.778200E+01  6.078840E-02
5.875100E+01  5.958262E-02
5.972100E+01  5.838211E-02
6.069000E+01  5.761586E-02
6.166000E+01  5.698873E-02
6.262900E+01  5.638268E-02
6.359900E+01  5.577663E-02
6.456800E+01  5.516952E-02
6.553800E+01  5.456347E-02
6.650800E+01  5.395742E-02
6.747700E+01  5.337878E-02
6.844700E+01  5.281383E-02
6.941600E+01  5.225416E-02
7.038600E+01  5.169554E-02
7.135500E+01  5.113586E-02
7.232500E+01  5.057619E-02
7.329400E+01  5.001652E-02
7.426400E+01  4.945684E-02
7.523300E+01  4.893827E-02
7.620300E+01  4.844395E-02
7.717200E+01  4.796859E-02
7.814200E+01  4.749429E-02
7.911100E+01  4.701894E-02
8.008100E+01  4.654359E-02
8.105100E+01  4.606929E-02
8.202000E+01  4.559393E-02
8.299000E+01  4.511963E-02
8.395900E+01  4.467590E-02
8.492900E+01  4.425114E-02
8.589800E+01  4.386116E-02
8.686800E+01  4.347223E-02
8.783700E+01  4.308330E-02
8.880700E+01  4.269332E-02
8.977600E+01  4.230334E-02
9.074600E+01  4.191442E-02
9.171500E+01  4.152444E-02
9.268500E+01  4.113551E-02
9.365500E+01  4.073710E-02
9.462400E+01  4.033763E-02
9.559400E+01  3.992025E-02
9.656300E+01  3.950287E-02
9.753300E+01  3.908548E-02
9.850200E+01  3.866810E-02
9.947200E+01  3.825071E-02
1.004400E+02  3.783333E-02
1.014100E+02  3.741595E-02
1.023800E+02  3.699856E-02
1.033500E+02  3.658012E-02
1.043200E+02  3.616274E-02
1.052900E+02  3.574536E-02
1.062600E+02  3.536486E-02
1.072300E+02  3.501072E-02
1.082000E+02  3.466184E-02
1.091700E+02  3.431719E-02
1.101400E+02  3.397464E-02
1.111100E+02  3.363103E-02
1.120800E+02  3.328743E-02
1.130500E+02  3.294277E-02
1.140100E+02  3.259811E-02
1.149800E+02  3.225556E-02
1.159500E+02  3.191196E-02
1.169200E+02  3.156835E-02
1.178900E+02  3.122370E-02
1.188600E+02  3.091487E-02
1.198300E+02  3.061132E-02
1.208000E+02  3.032463E-02
1.217700E+02  3.005059E-02
1.227400E+02  2.977655E-02
1.237100E+02  2.950462E-02
1.246800E+02  2.923164E-02
1.256500E+02  2.895865E-02
1.266200E+02  2.868461E-02
1.275900E+02  2.841162E-02
1.285600E+02  2.813758E-02
1.295300E+02  2.786354E-02
1.305000E+02  2.759056E-02
1.314700E+02  2.731757E-02
1.324400E+02  2.706461E-02
1.334100E+02  2.682219E-02
1.343800E+02  2.658293E-02
1.353400E+02  2.636897E-02
1.363100E+02  2.615501E-02
1.372800E+02  2.594210E-02
1.382500E+02  2.573025E-02
1.392200E+02  2.551734E-02
1.401900E+02  2.530443E-02
1.411600E+02  2.509152E-02
1.421300E+02  2.487862E-02
1.431000E+02  2.466465E-02
1.440700E+02  2.444964E-02
1.450400E+02  2.423673E-02
1.460100E+02  2.402382E-02
1.469800E+02  2.380986E-02
1.479500E+02  2.359801E-02
1.489200E+02  2.338510E-02
1.498900E+02  2.317219E-02
1.508600E+02  2.298879E-02
1.518300E+02  2.280856E-02
1.528000E+02  2.262833E-02
1.537700E+02  2.244915E-02
1.547400E+02  2.226997E-02
1.557000E+02  2.208973E-02
1.566700E+02  2.190950E-02
1.576400E+02  2.172926E-02
1.586100E+02  2.154903E-02
1.595800E+02  2.136985E-02
1.605500E+02  2.119067E-02
1.615200E+02  2.101149E-02
1.624900E+02  2.083126E-02
1.634600E+02  2.065102E-02
1.644300E+02  2.047184E-02
1.654000E+02  2.029161E-02
1.663700E+02  2.011137E-02
1.673400E+02  1.993114E-02
1.683100E+02  1.977831E-02
1.692800E+02  1.963180E-02
1.702500E+02  1.948530E-02
1.712200E+02  1.934195E-02
1.721900E+02  1.920177E-02
1.731600E+02  1.906159E-02
1.741300E+02  1.892035E-02
1.751000E+02  1.878017E-02
1.760700E+02  1.863999E-02
1.770300E+02  1.849981E-02
1.780000E+02  1.835857E-02
1.789700E+02  1.821839E-02
1.799400E+02  1.807715E-02
1.809100E+02  1.793697E-02
1.818800E+02  1.779574E-02
1.828500E+02  1.765555E-02
1.838200E+02  1.751432E-02
1.847900E+02  1.737519E-02
1.857600E+02  1.723501E-02
1.867300E+02  1.709483E-02
1.877000E+02  1.696308E-02
1.886700E+02  1.683554E-02
1.896400E+02  1.670906E-02
1.906100E+02  1.658258E-02
1.915800E+02  1.646032E-02
1.925500E+02  1.633805E-02
1.935200E+02  1.621579E-02
1.944900E+02  1.609353E-02
1.954600E+02  1.597126E-02
1.964300E+02  1.584900E-02
1.973900E+02  1.572673E-02
1.983600E+02  1.560447E-02
1.993300E+02  1.548221E-02
2.003000E+02  1.535994E-02
2.012700E+02  1.523768E-02
2.022400E+02  1.511541E-02
2.032100E+02  1.499315E-02
2.041800E+02  1.487194E-02
2.051500E+02  1.474968E-02
2.061200E+02  1.462741E-02
2.070900E+02  1.450515E-02
2.080600E+02  1.438288E-02
2.090300E+02  1.426273E-02
2.100000E+02  1.415522E-02
2.109700E+02  1.404877E-02
2.119400E+02  1.394231E-02
2.129100E+02  1.383797E-02
2.138800E+02  1.374838E-02
2.148500E+02  1.365984E-02
2.158200E+02  1.357130E-02
2.167900E+02  1.348277E-02
2.177600E+02  1.339423E-02
2.187200E+02  1.330570E-02
2.196900E+02  1.321716E-02
2.206600E+02  1.312862E-02
2.216300E+02  1.304009E-02
2.226000E+02  1.295050E-02
2.235700E+02  1.286196E-02
2.245400E+02  1.277343E-02
2.255100E+02  1.268489E-02
2.264800E+02  1.259635E-02
2.274500E+02  1.250676E-02
2.284200E+02  1.241823E-02
2.293900E+02  1.232969E-02
2.303600E+02  1.224116E-02
2.313300E+02  1.215262E-02
2.323000E+02  1.206303E-02
2.332700E+02  1.197449E-02
2.342400E+02  1.188912E-02
2.352100E+02  1.180269E-02
2.361800E+02  1.171732E-02
2.371500E+02  1.163194E-02
2.381200E+02  1.155395E-02
2.390900E+02  1.148438E-02
2.400500E+02  1.141482E-02
2.410200E+02  1.134631E-02
2.419900E+02  1.127675E-02
2.429600E+02  1.120718E-02
2.439300E+02  1.113867E-02
2.449000E+02  1.106911E-02
2.458700E+02  1.099954E-02
2.468400E+02  1.093103E-02
2.478100E+02  1.086147E-02
2.487800E+02  1.079296E-02
2.497500E+02  1.072340E-02
2.507200E+02  1.065489E-02
2.516900E+02  1.058532E-02
2.526600E+02  1.051639E-02
2.536300E+02  1.044725E-02
2.546000E+02  1.037811E-02
2.555700E+02  1.030896E-02
2.565400E+02  1.023982E-02
2.575100E+02  1.017068E-02
2.584800E+02  1.010164E-02
2.594500E+02  1.003250E-02
2.604100E+02  9.963357E-03
2.613800E+02  9.894109E-03
2.623500E+02  9.824861E-03
2.633200E+02  9.755613E-03
2.642900E+02  9.686365E-03
2.652600E+02  9.617118E-03
2.662300E+02  9.560202E-03
2.672000E+02  9.506342E-03
2.681700E+02  9.452588E-03
2.691400E+02  9.398729E-03
2.701100E+02  9.344975E-03
2.710800E+02  9.292380E-03
2.720500E+02  9.240313E-03
2.730200E+02  9.188350E-03
2.739900E+02  9.136283E-03
2.749600E+02  9.084215E-03
2.759300E+02  9.032253E-03
2.769000E+02  8.980291E-03
2.778700E+02  8.928223E-03
2.788400E+02  8.876261E-03
2.798100E+02  8.824299E-03
2.807800E+02  8.772337E-03
2.817400E+02  8.720374E-03
2.827100E+02  8.668412E-03
2.836800E+02  8.616555E-03
2.846500E+02  8.564593E-03
2.856200E+02  8.512736E-03
2.865900E+02  8.460669E-03
2.875600E+02  8.408707E-03
2.885300E+02  8.356744E-03
2.895000E+02  8.304677E-03
2.904700E+02  8.252715E-03
2.914400E+02  8.200752E-03
2.924100E+02  8.148790E-03
2.933800E+02  8.096723E-03
2.943500E+02  8.044760E-03
2.953200E+02  7.992798E-03
2.962900E+02  7.940836E-03
2.972600E+02  7.893406E-03
2.982300E+02  7.847135E-03
2.992000E+02  7.800759E-03
3.001700E+02  7.754489E-03
3.011400E+02  7.708218E-03
3.021000E+02  7.662369E-03
3.030700E+02  7.620736E-03
3.040400E+02  7.578998E-03
3.050100E+02  7.537365E-03
3.059800E+02  7.495732E-03
3.069500E+02  7.453993E-03
3.079200E+02  7.412360E-03
3.088900E+02  7.370727E-03
3.098600E+02  7.329094E-03
3.108300E+02  7.287461E-03
3.118000E+02  7.245828E-03
3.127700E+02  7.204195E-03
3.137400E+02  7.162562E-03
3.147100E+02  7.120929E-03
3.156800E+02  7.079191E-03
3.166500E+02  7.037558E-03
3.176200E+02  6.995820E-03
3.185900E+02  6.954187E-03
3.195600E+02  6.912554E-03
3.205300E+02  6.870921E-03
3.215000E+02  6.829393E-03
3.224700E+02  6.787760E-03
3.234300E+02  6.746232E-03
3.244000E+02  6.704599E-03
3.253700E+02  6.662966E-03
3.263400E+02  6.621333E-03
3.273100E+02  6.579700E-03
3.282800E+02  6.538067E-03
3.292500E+02  6.496434E-03
3.302200E+02  6.454696E-03
3.311900E+02  6.413379E-03
3.321600E+02  6.376173E-03
3.331300E+02  6.339072E-03
3.341000E+02  6.301971E-03
3.350700E+02  6.264765E-03
3.360400E+02  6.227664E-03
3.370100E+02  6.190458E-03
3.379800E+02  6.158733E-03
3.389500E+02  6.129221E-03
3.399200E+02  6.099603E-03
3.408900E+02  6.070091E-03
3.418600E+02  6.040474E-03
3.428300E+02  6.010962E-03
3.437900E+02  5.981345E-03
3.447600E+02  5.951833E-03
3.457300E+02  5.922215E-03
3.467000E+02  5.892703E-03
3.476700E+02  5.863086E-03
3.486400E+02  5.833574E-03
3.496100E+02  5.804062E-03
3.505800E+02  5.774444E-03
3.515500E+02  5.744827E-03
3.525200E+02  5.715210E-03
3.534900E+02  5.685592E-03
3.544600E+02  5.656080E-03
3.554300E+02  5.626463E-03
3.564000E+02  5.596845E-03
3.573700E+02  5.567228E-03
3.583400E+02  5.537716E-03
3.593100E+02  5.508204E-03
3.602800E+02  5.478587E-03
3.612500E+02  5.449075E-03
3.622200E+02  5.419563E-03
3.631900E+02  5.389945E-03
3.641600E+02  5.360433E-03
3.651200E+02  5.330816E-03
3.660900E+02  5.301304E-03
3.670600E+02  5.271686E-03
3.680300E+02  5.242174E-03
3.690000E+02  5.212557E-03
3.699700E+02  5.183150E-03
3.709400E+02  5.154376E-03
3.719100E+02  5.125497E-03
3.728800E+02  5.096722E-03
3.738500E+02  5.067948E-03
3.748200E+02  5.039174E-03
3.757900E+02  5.010400E-03
3.767600E+02  4.981942E-03
3.777300E+02  4.960335E-03
3.787000E+02  4.938622E-03
3.796700E+02  4.916910E-03
3.806400E+02  4.895303E-03
3.816100E+02  4.873591E-03
3.825800E+02  4.851878E-03
3.835500E+02  4.830271E-03
3.845200E+02  4.808559E-03
3.854900E+02  4.786846E-03
3.864500E+02  4.765029E-03
3.874200E+02  4.743316E-03
3.883900E+02  4.721604E-03
3.893600E+02  4.699891E-03
3.903300E+02  4.678179E-03
3.913000E+02  4.656467E-03
3.922700E+02  4.634754E-03
3.932400E+02  4.613042E-03
3.942100E+02  4.591329E-03
3.951800E+02  4.569617E-03
3.961500E+02  4.547905E-03
3.971200E+02  4.526192E-03
3.980900E+02  4.504374E-03
3.990600E+02  4.482662E-03
4.000300E+02  4.460950E-03
4.010000E+02  4.439237E-03
4.019700E+02  4.417525E-03
4.029400E+02  4.395812E-03
4.039100E+02  4.374100E-03
4.048800E+02  4.352388E-03
4.058500E+02  4.330675E-03
4.068100E+02  4.308963E-03
4.077800E+02  4.287250E-03
4.087500E+02  4.265538E-03
4.097200E+02  4.243826E-03
4.106900E+02  4.222113E-03
4.116600E+02  4.200401E-03
4.126300E+02  4.178688E-03
4.136000E+02  4.156976E-03
4.145700E+02  4.135264E-03
4.155400E+02  4.113446E-03
4.165100E+02  4.091733E-03
4.174800E+02  4.070021E-03
4.184500E+02  4.048309E-03
4.194200E+02  4.026596E-03
4.203900E+02  4.004884E-03
4.213600E+02  3.986123E-03
4.223300E+02  3.969153E-03
4.233000E+02  3.952184E-03
4.242700E+02  3.935109E-03
4.252400E+02  3.918140E-03
4.262100E+02  3.901065E-03
4.271800E+02  3.884095E-03
4.281400E+02  3.867021E-03
4.291100E+02  3.850578E-03
4.300800E+02  3.834557E-03
4.310500E+02  3.818431E-03
4.320200E+02  3.802410E-03
4.329900E+02  3.786284E-03
4.339600E+02  3.770158E-03
4.349300E+02  3.754137E-03
4.359000E+02  3.738011E-03
4.368700E+02  3.721990E-03
4.378400E+02  3.705864E-03
4.388100E+02  3.689738E-03
4.397800E+02  3.673612E-03
4.407500E+02  3.657591E-03
4.417200E+02  3.641465E-03
4.426900E+02  3.625338E-03
4.436600E+02  3.609212E-03
4.446300E+02  3.593191E-03
4.456000E+02  3.577065E-03
4.465700E+02  3.560939E-03
4.475400E+02  3.544918E-03
4.485000E+02  3.528792E-03
4.494700E+02  3.512771E-03
4.504400E+02  3.496645E-03
4.514100E+02  3.480624E-03
4.523800E+02  3.464498E-03
4.533500E+02  3.448477E-03
4.543200E+02  3.432351E-03
4.552900E+02  3.416225E-03
4.562600E+02  3.400099E-03
4.572300E+02  3.383972E-03
4.582000E+02  3.367952E-03
4.591700E+02  3.351825E-03
4.601400E+02  3.335699E-03
4.611100E+02  3.319573E-03
4.620800E+02  3.303552E-03
4.630500E+02  3.287426E-03
4.640200E+02  3.271300E-03
4.649900E+02  3.255174E-03
4.659600E+02  3.239153E-03
4.669300E+02  3.223027E-03
4.679000E+02  3.206900E-03
4.688700E+02  3.190774E-03
4.698300E+02  3.174753E-03
4.708000E+02  3.161578E-03
4.717700E+02  3.148720E-03
4.727400E+02  3.135755E-03
4.737100E+02  3.122897E-03
4.746800E+02  3.109932E-03
4.756500E+02  3.097074E-03
4.766200E+02  3.084109E-03
4.775900E+02  3.071145E-03
4.785600E+02  3.058286E-03
4.795300E+02  3.046903E-03
4.805000E+02  3.035731E-03
4.814700E+02  3.024558E-03
4.824400E+02  3.013386E-03
4.834100E+02  3.002214E-03
4.843800E+02  2.991041E-03
4.853500E+02  2.979869E-03
4.863200E+02  2.968696E-03
4.872900E+02  2.957524E-03
4.882600E+02  2.946352E-03
4.892300E+02  2.935179E-03
4.901900E+02  2.923901E-03
4.911600E+02  2.912729E-03
4.921300E+02  2.901557E-03
4.931000E+02  2.890384E-03
4.940700E+02  2.879212E-03
4.950400E+02  2.868039E-03
4.960100E+02  2.856867E-03
4.969800E+02  2.845695E-03
4.979500E+02  2.834522E-03
4.989200E+02  2.823350E-03
4.998900E+02  2.812177E-03
5.008600E+02  2.801005E-03
5.018300E+02  2.789833E-03
5.028000E+02  2.778660E-03
5.037700E+02  2.767488E-03
5.047400E+02  2.756315E-03
5.057100E+02  2.745143E-03
5.066800E+02  2.733971E-03
5.076500E+02  2.722798E-03
5.086200E+02  2.711626E-03
5.095900E+02  2.700453E-03
5.105600E+02  2.689281E-03
5.115200E+02  2.678109E-03
5.124900E+02  2.666936E-03
5.134600E+02  2.655764E-03
5.144300E+02  2.644591E-03
5.154000E+02  2.633419E-03
5.163700E+02  2.622247E-03
5.173400E+02  2.611074E-03
5.183100E+02  2.599902E-03
5.192800E+02  2.588729E-03
5.202500E+02  2.577557E-03
5.212200E+02  2.566385E-03
5.221900E+02  2.555212E-03
5.231600E+02  2.544040E-03
5.241300E+02  2.532867E-03
5.251000E+02  2.521906E-03
5.260700E+02  2.511787E-03
5.270400E+02  2.501669E-03
5.280100E+02  2.491551E-03
5.289800E+02  2.481432E-03
5.299500E+02  2.471314E-03
5.309200E+02  2.461090E-03
5.318900E+02  2.450972E-03
5.328500E+02  2.440853E-03
5.338200E+02  2.430735E-03
5.347900E+02  2.421038E-03
5.357600E+02  2.412711E-03
5.367300E+02  2.404385E-03
5.377000E+02  2.396058E-03
5.386700E+02  2.387732E-03
5.396400E+02  2.379405E-03
5.406100E+02  2.371184E-03
5.415800E+02  2.362857E-03
5.425500E+02  2.354531E-03
5.435200E+02  2.346204E-03
5.444900E+02  2.337877E-03
5.454600E+02  2.329551E-03
5.464300E+02  2.321224E-03
5.474000E+02  2.312898E-03
5.483700E+02  2.304571E-03
5.493400E+02  2.296350E-03
5.503100E+02  2.288023E-03
5.512800E+02  2.279697E-03
5.522500E+02  2.271370E-03
5.532100E+02  2.263043E-03
5.541800E+02  2.254717E-03
5.551500E+02  2.246390E-03
5.561200E+02  2.238064E-03
5.570900E+02  2.229842E-03
5.580600E+02  2.221516E-03
5.590300E+02  2.213189E-03
5.600000E+02  2.204863E-03
5.609700E+02  2.196536E-03
5.619400E+02  2.188209E-03
5.629100E+02  2.179883E-03
5.638800E+02  2.171556E-03
5.648500E+02  2.163230E-03
5.658200E+02  2.154903E-03
5.667900E+02  2.146576E-03
5.677600E+02  2.138250E-03
5.687300E+02  2.129923E-03
5.697000E+02  2.121597E-03
5.706700E+02  2.113270E-03
5.716400E+02  2.104943E-03
5.726100E+02  2.096617E-03
5.735800E+02  2.088290E-03
5.745400E+02  2.079964E-03
5.755100E+02  2.071637E-03
5.764800E+02  2.063310E-03
5.774500E+02  2.054984E-03
5.784200E+02  2.046657E-03
5.793900E+02  2.038436E-03
5.803600E+02  2.030109E-03
5.813300E+02  2.021783E-03
5.823000E+02  2.013456E-03
5.832700E+02  2.005130E-03
5.842400E+02  1.996803E-03
5.852100E+02  1.988582E-03
5.861800E+02  1.980255E-03
5.871500E+02  1.972139E-03
5.881200E+02  1.964129E-03
5.890900E+02  1.956013E-03
5.900600E+02  1.948003E-03
5.910300E+02  1.939887E-03
5.920000E+02  1.931771E-03
5.929700E+02  1.923761E-03
5.939400E+02  1.915645E-03
5.949000E+02  1.907635E-03
5.958700E+02  1.899519E-03
5.968400E+02  1.891403E-03
5.978100E+02  1.885290E-03
5.987800E+02  1.879493E-03
5.997500E+02  1.873801E-03
6.007200E+02  1.868004E-03
6.016900E+02  1.862313E-03
6.026600E+02  1.856621E-03
6.036300E+02  1.850824E-03
6.046000E+02  1.845132E-03
6.055700E+02  1.839335E-03
6.065400E+02  1.833644E-03
6.075100E+02  1.827847E-03
6.084800E+02  1.822155E-03
6.094500E+02  1.816464E-03
6.104200E+02  1.810667E-03
6.113900E+02  1.804975E-03
6.123600E+02  1.799178E-03
6.133300E+02  1.793486E-03
6.143000E+02  1.787795E-03
6.152700E+02  1.781998E-03
6.162300E+02  1.776306E-03
6.172000E+02  1.770509E-03
6.181700E+02  1.764818E-03
6.191400E+02  1.759126E-03
6.201100E+02  1.753329E-03
6.210800E+02  1.747637E-03
6.220500E+02  1.741946E-03
6.230200E+02  1.736149E-03
6.239900E+02  1.730457E-03
6.249600E+02  1.724660E-03
6.259300E+02  1.718969E-03
6.269000E+02  1.713277E-03
6.278700E+02  1.707480E-03
6.288400E+02  1.701788E-03
6.298100E+02  1.696097E-03
6.307800E+02  1.690300E-03
6.317500E+02  1.684608E-03
6.327200E+02  1.678811E-03
6.336900E+02  1.673120E-03
6.346600E+02  1.667428E-03
6.356300E+02  1.661631E-03
6.365900E+02  1.655939E-03
6.375600E+02  1.650248E-03
6.385300E+02  1.644451E-03
6.395000E+02  1.638759E-03
6.404700E+02  1.632962E-03
6.414400E+02  1.627271E-03
6.424100E+02  1.621579E-03
6.433800E+02  1.615782E-03
6.443500E+02  1.610090E-03
6.453200E+02  1.604293E-03
6.462900E+02  1.598602E-03
6.472600E+02  1.592805E-03
6.482300E+02  1.587113E-03
6.492000E+02  1.581422E-03
6.501700E+02  1.575625E-03
6.511400E+02  1.569933E-03
6.521100E+02  1.564136E-03
6.530800E+02  1.558444E-03
6.540500E+02  1.552647E-03
6.550200E+02  1.546956E-03
6.559900E+02  1.541264E-03
6.569600E+02  1.535467E-03
6.579200E+02  1.529776E-03
6.588900E+02  1.524084E-03
6.598600E+02  1.518287E-03
6.608300E+02  1.512595E-03
6.618000E+02  1.506904E-03
6.627700E+02  1.501107E-03
6.637400E+02  1.495415E-03
6.647100E+02  1.489724E-03
6.656800E+02  1.483927E-03
6.666500E+02  1.478235E-03
6.676200E+02  1.473808E-03
6.685900E+02  1.469487E-03
6.695600E+02  1.465271E-03
6.705300E+02  1.461055E-03
6.715000E+02  1.456839E-03
6.724700E+02  1.452623E-03
6.734400E+02  1.448407E-03
6.744100E+02  1.444191E-03
6.753800E+02  1.439975E-03
6.763500E+02  1.435759E-03
6.773200E+02  1.431543E-03
6.782900E+02  1.427327E-03
6.792500E+02  1.423111E-03
6.802200E+02  1.419000E-03
6.811900E+02  1.414995E-03
6.821600E+02  1.410884E-03
6.831300E+02  1.406879E-03
6.841000E+02  1.402874E-03
6.850700E+02  1.398763E-03
6.860400E+02  1.394758E-03
6.870100E+02  1.390648E-03
6.879800E+02  1.386642E-03
6.889500E+02  1.382532E-03
6.899200E+02  1.378527E-03
6.908900E+02  1.374416E-03
6.918600E+02  1.370411E-03
6.928300E+02  1.366300E-03
6.938000E+02  1.362295E-03
6.947700E+02  1.358290E-03
6.957400E+02  1.354179E-03
6.967100E+02  1.350174E-03
6.976800E+02  1.346063E-03
6.986500E+02  1.342058E-03
6.996100E+02  1.337948E-03
7.005800E+02  1.333942E-03
7.015500E+02  1.329832E-03
7.025200E+02  1.325827E-03
7.034900E+02  1.321716E-03
7.044600E+02  1.317711E-03
7.054300E+02  1.313706E-03
7.064000E+02  1.309595E-03
7.073700E+02  1.305590E-03
7.083400E+02  1.301479E-03
7.093100E+02  1.297474E-03
7.102800E+02  1.293363E-03
7.112500E+02  1.289358E-03
7.122200E+02  1.285248E-03
7.131900E+02  1.281242E-03
7.141600E+02  1.277132E-03
7.151300E+02  1.273127E-03
7.161000E+02  1.269016E-03
7.170700E+02  1.265011E-03
7.180400E+02  1.260900E-03
7.190100E+02  1.256895E-03
7.199800E+02  1.252784E-03
7.209400E+02  1.248779E-03
7.219100E+02  1.244774E-03
7.228800E+02  1.240663E-03
7.238500E+02  1.236658E-03
7.248200E+02  1.232548E-03
7.257900E+02  1.228542E-03
7.267600E+02  1.224432E-03
7.277300E+02  1.220427E-03
7.287000E+02  1.216421E-03
