# (E [MeV])  (Flux [1/MeV/cm^2/s]
2.000000E-02  4.437600E+01
3.633600E-02  1.514305E+02
5.267300E-02  3.101470E+02
6.900900E-02  5.186832E+02
8.534500E-02  7.752384E+02
1.016800E-01  1.078234E+03
1.180200E-01  1.432313E+03
1.343500E-01  1.832987E+03
1.506900E-01  2.273496E+03
1.670300E-01  2.752138E+03
1.833600E-01  3.267054E+03
1.997000E-01  3.817058E+03
2.160400E-01  4.407208E+03
2.323700E-01  5.027182E+03
2.487100E-01  5.674452E+03
2.650500E-01  6.346284E+03
2.813800E-01  7.040820E+03
2.977200E-01  7.753932E+03
3.140500E-01  8.469624E+03
3.303900E-01  9.193572E+03
3.467300E-01  9.983568E+03
3.630600E-01  1.086799E+04
3.794000E-01  1.178338E+04
3.957400E-01  1.273230E+04
4.120700E-01  1.370548E+04
4.284100E-01  1.470497E+04
4.447400E-01  1.573800E+04
4.610800E-01  1.681076E+04
4.774200E-01  1.791552E+04
4.937500E-01  1.904711E+04
5.100900E-01  2.019882E+04
5.264300E-01  2.137633E+04
5.427600E-01  2.258738E+04
5.591000E-01  2.384384E+04
5.754400E-01  2.513178E+04
5.917700E-01  2.644397E+04
6.081100E-01  2.777834E+04
6.244400E-01  2.913697E+04
6.407800E-01  3.052450E+04
6.571200E-01  3.194969E+04
6.734500E-01  3.339965E+04
6.897900E-01  3.487231E+04
7.061300E-01  3.636768E+04
7.224600E-01  3.788420E+04
7.388000E-01  3.942911E+04
7.551400E-01  4.100291E+04
7.714700E-01  4.259838E+04
7.878100E-01  4.421449E+04
8.041400E-01  4.584970E+04
8.204800E-01  4.750193E+04
8.368200E-01  4.918976E+04
8.531500E-01  5.089979E+04
8.694900E-01  5.263200E+04
8.858300E-01  5.437608E+04
9.021600E-01  5.614080E+04
9.185000E-01  5.792100E+04
9.348300E-01  5.974248E+04
9.511700E-01  6.157944E+04
9.675100E-01  6.343704E+04
9.838400E-01  6.531012E+04
1.000200E+00  6.720384E+04
1.016500E+00  6.910788E+04
1.032900E+00  7.104288E+04
1.049200E+00  7.300368E+04
1.065500E+00  7.497996E+04
1.081900E+00  7.697172E+04
1.098200E+00  7.897380E+04
1.114500E+00  8.099652E+04
1.130900E+00  8.304504E+04
1.147200E+00  8.510904E+04
1.163500E+00  8.719368E+04
1.179900E+00  8.928864E+04
1.196200E+00  9.140424E+04
1.212600E+00  9.353016E+04
1.228900E+00  9.567672E+04
1.245200E+00  9.783876E+04
1.261600E+00  1.000163E+05
1.277900E+00  1.022093E+05
1.294200E+00  1.044126E+05
1.310600E+00  1.066314E+05
1.326900E+00  1.088657E+05
1.343200E+00  1.111154E+05
1.359600E+00  1.133755E+05
1.375900E+00  1.156511E+05
1.392300E+00  1.179370E+05
1.408600E+00  1.202332E+05
1.424900E+00  1.225448E+05
1.441300E+00  1.248720E+05
1.457600E+00  1.272146E+05
1.473900E+00  1.295624E+05
1.490300E+00  1.319257E+05
1.506600E+00  1.342942E+05
1.522900E+00  1.366781E+05
1.539300E+00  1.390775E+05
1.555600E+00  1.414872E+05
1.572000E+00  1.439021E+05
1.588300E+00  1.463324E+05
1.604600E+00  1.487628E+05
1.621000E+00  1.512086E+05
1.637300E+00  1.536700E+05
1.653600E+00  1.561364E+05
1.670000E+00  1.586132E+05
1.686300E+00  1.610952E+05
1.702600E+00  1.635875E+05
1.719000E+00  1.660849E+05
1.735300E+00  1.685978E+05
1.751700E+00  1.711159E+05
1.768000E+00  1.736340E+05
1.784300E+00  1.761624E+05
1.800700E+00  1.786960E+05
1.817000E+00  1.812398E+05
1.833300E+00  1.837992E+05
1.849700E+00  1.863586E+05
1.866000E+00  1.889231E+05
1.882300E+00  1.914979E+05
1.898700E+00  1.940676E+05
1.915000E+00  1.966528E+05
1.931400E+00  1.992482E+05
1.947700E+00  2.018437E+05
1.964000E+00  2.044444E+05
1.980400E+00  2.070502E+05
1.996700E+00  2.096560E+05
2.013000E+00  2.122721E+05
2.029400E+00  2.148985E+05
2.045700E+00  2.175250E+05
2.062000E+00  2.201566E+05
2.078400E+00  2.227882E+05
2.094700E+00  2.254198E+05
2.111100E+00  2.280617E+05
2.127400E+00  2.307088E+05
2.143700E+00  2.333610E+05
2.160100E+00  2.360132E+05
2.176400E+00  2.386655E+05
2.192700E+00  2.413177E+05
2.209100E+00  2.439803E+05
2.225400E+00  2.466428E+05
2.241700E+00  2.493106E+05
2.258100E+00  2.519783E+05
2.274400E+00  2.546408E+05
2.290800E+00  2.573086E+05
2.307100E+00  2.599814E+05
2.323400E+00  2.626543E+05
2.339800E+00  2.653324E+05
2.356100E+00  2.680052E+05
2.372400E+00  2.706781E+05
2.388800E+00  2.733510E+05
2.405100E+00  2.760290E+05
2.421400E+00  2.787122E+05
2.437800E+00  2.813903E+05
2.454100E+00  2.840683E+05
2.470500E+00  2.867464E+05
2.486800E+00  2.894192E+05
2.503100E+00  2.920973E+05
2.519500E+00  2.947753E+05
2.535800E+00  2.974534E+05
2.552100E+00  3.001314E+05
2.568500E+00  3.027991E+05
2.584800E+00  3.054720E+05
2.601100E+00  3.081449E+05
2.617500E+00  3.108178E+05
2.633800E+00  3.134855E+05
2.650200E+00  3.161532E+05
2.666500E+00  3.188158E+05
2.682800E+00  3.214783E+05
2.699200E+00  3.241357E+05
2.715500E+00  3.267983E+05
2.731800E+00  3.294557E+05
2.748200E+00  3.321079E+05
2.764500E+00  3.347602E+05
2.780800E+00  3.374021E+05
2.797200E+00  3.400492E+05
2.813500E+00  3.426911E+05
2.829800E+00  3.453330E+05
2.846200E+00  3.479698E+05
2.862500E+00  3.505962E+05
2.878900E+00  3.532175E+05
2.895200E+00  3.558439E+05
2.911500E+00  3.584704E+05
2.927900E+00  3.610865E+05
2.944200E+00  3.636974E+05
2.960500E+00  3.663084E+05
2.976900E+00  3.689039E+05
2.993200E+00  3.715045E+05
3.009500E+00  3.741000E+05
3.025900E+00  3.766903E+05
3.042200E+00  3.792755E+05
3.058600E+00  3.818503E+05
3.074900E+00  3.844200E+05
3.091200E+00  3.869845E+05
3.107600E+00  3.895490E+05
3.123900E+00  3.921084E+05
3.140200E+00  3.946626E+05
3.156600E+00  3.972013E+05
3.172900E+00  3.997349E+05
3.189200E+00  4.022684E+05
3.205600E+00  4.047968E+05
3.221900E+00  4.073201E+05
3.238300E+00  4.098330E+05
3.254600E+00  4.123356E+05
3.270900E+00  4.148330E+05
3.287300E+00  4.173253E+05
3.303600E+00  4.198124E+05
3.319900E+00  4.222944E+05
3.336300E+00  4.247660E+05
3.352600E+00  4.272274E+05
3.368900E+00  4.296784E+05
3.385300E+00  4.321294E+05
3.401600E+00  4.345752E+05
3.418000E+00  4.370107E+05
3.434300E+00  4.394359E+05
3.450600E+00  4.418508E+05
3.467000E+00  4.442605E+05
3.483300E+00  4.466651E+05
3.499600E+00  4.490593E+05
3.516000E+00  4.514484E+05
3.532300E+00  4.538220E+05
3.548600E+00  4.561904E+05
3.565000E+00  4.585486E+05
3.581300E+00  4.609015E+05
3.597700E+00  4.632442E+05
3.614000E+00  4.655816E+05
3.630300E+00  4.679036E+05
3.646700E+00  4.702153E+05
3.663000E+00  4.725167E+05
3.679300E+00  4.748180E+05
3.695700E+00  4.771091E+05
3.712000E+00  4.793898E+05
3.728300E+00  4.816550E+05
3.744700E+00  4.839151E+05
3.761000E+00  4.861597E+05
3.777400E+00  4.884043E+05
3.793700E+00  4.906386E+05
3.810000E+00  4.928574E+05
3.826400E+00  4.950710E+05
3.842700E+00  4.972692E+05
3.859000E+00  4.994519E+05
3.875400E+00  5.016346E+05
3.891700E+00  5.038069E+05
3.908000E+00  5.059690E+05
3.924400E+00  5.081207E+05
3.940700E+00  5.102569E+05
3.957100E+00  5.123777E+05
3.973400E+00  5.144984E+05
3.989700E+00  5.166192E+05
4.006100E+00  5.186832E+05
4.022400E+00  5.207988E+05
4.038700E+00  5.228628E+05
4.055100E+00  5.249268E+05
4.071400E+00  5.269908E+05
4.087700E+00  5.290032E+05
4.104100E+00  5.310672E+05
4.120400E+00  5.330796E+05
4.136800E+00  5.350404E+05
4.153100E+00  5.370528E+05
4.169400E+00  5.390652E+05
4.185800E+00  5.410260E+05
4.202100E+00  5.429868E+05
4.218400E+00  5.449476E+05
4.234800E+00  5.468568E+05
4.251100E+00  5.487660E+05
4.267400E+00  5.506752E+05
4.283800E+00  5.525844E+05
4.300100E+00  5.544936E+05
4.316500E+00  5.563512E+05
4.332800E+00  5.582088E+05
4.349100E+00  5.600664E+05
4.365500E+00  5.619240E+05
4.381800E+00  5.637300E+05
4.398100E+00  5.655360E+05
4.414500E+00  5.673420E+05
4.430800E+00  5.691480E+05
4.447100E+00  5.709024E+05
4.463500E+00  5.727084E+05
4.479800E+00  5.744628E+05
4.496200E+00  5.761656E+05
4.512500E+00  5.779200E+05
4.528800E+00  5.796228E+05
4.545200E+00  5.813256E+05
4.561500E+00  5.830284E+05
4.577800E+00  5.846796E+05
4.594200E+00  5.863308E+05
4.610500E+00  5.879820E+05
4.626800E+00  5.896332E+05
4.643200E+00  5.912328E+05
4.659500E+00  5.928324E+05
4.675900E+00  5.944320E+05
4.692200E+00  5.960316E+05
4.708500E+00  5.975796E+05
4.724900E+00  5.991792E+05
4.741200E+00  6.006756E+05
4.757500E+00  6.022236E+05
4.773900E+00  6.037200E+05
4.790200E+00  6.052164E+05
4.806500E+00  6.067128E+05
4.822900E+00  6.082092E+05
4.839200E+00  6.096540E+05
4.855600E+00  6.110988E+05
4.871900E+00  6.125436E+05
4.888200E+00  6.139368E+05
4.904600E+00  6.153816E+05
4.920900E+00  6.167748E+05
4.937200E+00  6.181164E+05
4.953600E+00  6.195096E+05
4.969900E+00  6.208512E+05
4.986200E+00  6.221928E+05
5.002600E+00  6.234828E+05
5.018900E+00  6.248244E+05
5.035300E+00  6.260628E+05
5.051600E+00  6.273528E+05
5.067900E+00  6.286428E+05
5.084300E+00  6.298812E+05
5.100600E+00  6.311196E+05
5.116900E+00  6.323580E+05
5.133300E+00  6.335448E+05
5.149600E+00  6.347316E+05
5.165900E+00  6.359184E+05
5.182300E+00  6.371052E+05
5.198600E+00  6.382404E+05
5.215000E+00  6.393756E+05
5.231300E+00  6.404592E+05
5.247600E+00  6.415944E+05
5.264000E+00  6.426780E+05
5.280300E+00  6.437616E+05
5.296600E+00  6.447936E+05
5.313000E+00  6.458772E+05
5.329300E+00  6.469092E+05
5.345600E+00  6.478896E+05
5.362000E+00  6.489216E+05
5.378300E+00  6.499020E+05
5.394700E+00  6.508824E+05
5.411000E+00  6.518112E+05
5.427300E+00  6.527916E+05
5.443700E+00  6.537204E+05
5.460000E+00  6.546492E+05
5.476300E+00  6.555264E+05
5.492700E+00  6.564036E+05
5.509000E+00  6.572808E+05
5.525300E+00  6.581064E+05
5.541700E+00  6.589836E+05
5.558000E+00  6.598092E+05
5.574400E+00  6.605832E+05
5.590700E+00  6.614088E+05
5.607000E+00  6.621828E+05
5.623400E+00  6.629568E+05
5.639700E+00  6.636792E+05
5.656000E+00  6.644532E+05
5.672400E+00  6.651240E+05
5.688700E+00  6.658464E+05
5.705000E+00  6.665172E+05
5.721400E+00  6.671880E+05
5.737700E+00  6.678588E+05
5.754100E+00  6.685296E+05
5.770400E+00  6.691488E+05
5.786700E+00  6.697680E+05
5.803100E+00  6.703356E+05
5.819400E+00  6.709548E+05
5.835700E+00  6.715224E+05
5.852100E+00  6.720900E+05
5.868400E+00  6.726060E+05
5.884700E+00  6.731220E+05
5.901100E+00  6.736380E+05
5.917400E+00  6.741540E+05
5.933800E+00  6.746184E+05
5.950100E+00  6.750828E+05
5.966400E+00  6.755472E+05
5.982800E+00  6.759600E+05
5.999100E+00  6.763728E+05
6.015400E+00  6.767856E+05
6.031800E+00  6.771468E+05
6.048100E+00  6.775596E+05
6.064400E+00  6.779208E+05
6.080800E+00  6.782304E+05
6.097100E+00  6.785916E+05
6.113500E+00  6.789012E+05
6.129800E+00  6.791592E+05
6.146100E+00  6.794688E+05
6.162500E+00  6.797268E+05
6.178800E+00  6.799848E+05
6.195100E+00  6.802428E+05
6.211500E+00  6.804492E+05
6.227800E+00  6.806556E+05
6.244100E+00  6.808620E+05
6.260500E+00  6.810168E+05
6.276800E+00  6.811716E+05
6.293200E+00  6.813264E+05
6.309500E+00  6.814812E+05
6.325800E+00  6.815844E+05
6.342200E+00  6.816876E+05
6.358500E+00  6.817908E+05
6.374800E+00  6.818424E+05
6.391200E+00  6.818940E+05
6.407500E+00  6.819456E+05
6.423800E+00  6.819972E+05
6.440200E+00  6.819972E+05
6.456500E+00  6.819972E+05
6.472900E+00  6.819972E+05
6.489200E+00  6.819456E+05
6.505500E+00  6.818940E+05
6.521900E+00  6.818424E+05
6.538200E+00  6.817908E+05
6.554500E+00  6.816876E+05
6.570900E+00  6.815844E+05
6.587200E+00  6.814812E+05
6.603500E+00  6.813264E+05
6.619900E+00  6.811716E+05
6.636200E+00  6.810168E+05
6.652600E+00  6.808620E+05
6.668900E+00  6.806556E+05
6.685200E+00  6.804492E+05
6.701600E+00  6.802428E+05
6.717900E+00  6.799848E+05
6.734200E+00  6.797268E+05
6.750600E+00  6.794688E+05
6.766900E+00  6.792108E+05
6.783200E+00  6.789012E+05
6.799600E+00  6.785916E+05
6.815900E+00  6.782820E+05
6.832300E+00  6.779208E+05
6.848600E+00  6.776112E+05
6.864900E+00  6.771984E+05
6.881300E+00  6.768372E+05
6.897600E+00  6.764244E+05
6.913900E+00  6.760632E+05
6.930300E+00  6.755988E+05
6.946600E+00  6.751860E+05
6.962900E+00  6.747216E+05
6.979300E+00  6.742572E+05
6.995600E+00  6.737928E+05
7.012000E+00  6.733284E+05
7.028300E+00  6.728124E+05
7.044600E+00  6.722964E+05
7.061000E+00  6.717288E+05
7.077300E+00  6.712128E+05
7.093600E+00  6.706452E+05
7.110000E+00  6.700776E+05
7.126300E+00  6.694584E+05
7.142600E+00  6.688908E+05
7.159000E+00  6.682716E+05
7.175300E+00  6.676008E+05
7.191700E+00  6.669816E+05
7.208000E+00  6.663108E+05
7.224300E+00  6.656400E+05
7.240700E+00  6.649692E+05
7.257000E+00  6.642984E+05
7.273300E+00  6.635760E+05
7.289700E+00  6.628536E+05
7.306000E+00  6.620796E+05
7.322300E+00  6.613572E+05
7.338700E+00  6.605832E+05
7.355000E+00  6.598092E+05
7.371400E+00  6.590352E+05
7.387700E+00  6.582096E+05
7.404000E+00  6.573840E+05
7.420400E+00  6.565584E+05
7.436700E+00  6.557328E+05
7.453000E+00  6.548556E+05
7.469400E+00  6.539784E+05
7.485700E+00  6.531012E+05
7.502000E+00  6.522240E+05
7.518400E+00  6.513468E+05
7.534700E+00  6.504180E+05
7.551100E+00  6.494892E+05
7.567400E+00  6.485088E+05
7.583700E+00  6.475800E+05
7.600100E+00  6.465996E+05
7.616400E+00  6.456192E+05
7.632700E+00  6.446388E+05
7.649100E+00  6.436068E+05
7.665400E+00  6.425748E+05
7.681700E+00  6.415428E+05
7.698100E+00  6.405108E+05
7.714400E+00  6.394272E+05
7.730800E+00  6.383952E+05
7.747100E+00  6.373116E+05
7.763400E+00  6.361764E+05
7.779800E+00  6.350928E+05
7.796100E+00  6.339576E+05
7.812400E+00  6.328740E+05
7.828800E+00  6.316872E+05
7.845100E+00  6.305520E+05
7.861400E+00  6.293652E+05
7.877800E+00  6.282300E+05
7.894100E+00  6.270432E+05
7.910500E+00  6.258048E+05
7.926800E+00  6.246180E+05
7.943100E+00  6.233796E+05
7.959500E+00  6.221412E+05
7.975800E+00  6.209028E+05
7.992100E+00  6.196644E+05
8.008500E+00  6.183744E+05
8.024800E+00  6.170844E+05
8.041100E+00  6.157944E+05
8.057500E+00  6.145044E+05
8.073800E+00  6.131628E+05
8.090200E+00  6.118728E+05
8.106500E+00  6.105312E+05
8.122800E+00  6.091896E+05
8.139200E+00  6.077964E+05
8.155500E+00  6.064548E+05
8.171800E+00  6.050616E+05
8.188200E+00  6.036684E+05
8.204500E+00  6.022752E+05
8.220800E+00  6.008820E+05
8.237200E+00  5.994372E+05
8.253500E+00  5.979924E+05
8.269800E+00  5.965476E+05
8.286200E+00  5.951028E+05
8.302500E+00  5.936580E+05
8.318900E+00  5.921616E+05
8.335200E+00  5.906652E+05
8.351500E+00  5.891688E+05
8.367900E+00  5.876724E+05
8.384200E+00  5.861760E+05
8.400500E+00  5.846796E+05
8.416900E+00  5.831316E+05
8.433200E+00  5.815836E+05
8.449500E+00  5.800356E+05
8.465900E+00  5.784876E+05
8.482200E+00  5.768880E+05
8.498600E+00  5.753400E+05
8.514900E+00  5.737404E+05
8.531200E+00  5.720892E+05
8.547600E+00  5.704896E+05
8.563900E+00  5.688900E+05
8.580200E+00  5.672904E+05
8.596600E+00  5.656392E+05
8.612900E+00  5.639880E+05
8.629200E+00  5.623368E+05
8.645600E+00  5.606340E+05
8.661900E+00  5.589828E+05
8.678300E+00  5.573316E+05
8.694600E+00  5.556288E+05
8.710900E+00  5.539260E+05
8.727300E+00  5.522232E+05
8.743600E+00  5.504688E+05
8.759900E+00  5.487660E+05
8.776300E+00  5.470632E+05
8.792600E+00  5.453088E+05
8.808900E+00  5.435544E+05
8.825300E+00  5.418000E+05
8.841600E+00  5.399940E+05
8.858000E+00  5.382396E+05
8.874300E+00  5.364852E+05
8.890600E+00  5.346792E+05
8.907000E+00  5.328732E+05
8.923300E+00  5.310672E+05
8.939600E+00  5.292612E+05
8.956000E+00  5.274552E+05
8.972300E+00  5.255976E+05
8.988600E+00  5.237916E+05
9.005000E+00  5.219340E+05
9.021300E+00  5.200764E+05
9.037700E+00  5.182188E+05
9.054000E+00  5.163612E+05
9.070300E+00  5.144984E+05
9.086700E+00  5.126202E+05
9.103000E+00  5.107368E+05
9.119300E+00  5.088328E+05
9.135700E+00  5.069390E+05
9.152000E+00  5.050350E+05
9.168300E+00  5.031310E+05
9.184700E+00  5.012114E+05
9.201000E+00  4.992868E+05
9.217400E+00  4.973414E+05
9.233700E+00  4.954116E+05
9.250000E+00  4.934714E+05
9.266400E+00  4.915261E+05
9.282700E+00  4.895705E+05
9.299000E+00  4.876045E+05
9.315400E+00  4.856282E+05
9.331700E+00  4.836571E+05
9.348000E+00  4.816808E+05
9.364400E+00  4.796994E+05
9.380700E+00  4.777128E+05
9.397100E+00  4.757107E+05
9.413400E+00  4.737035E+05
9.429700E+00  4.716962E+05
9.446100E+00  4.696890E+05
9.462400E+00  4.676766E+05
9.478700E+00  4.656539E+05
9.495100E+00  4.636208E+05
9.511400E+00  4.615878E+05
9.527700E+00  4.595496E+05
9.544100E+00  4.575114E+05
9.560400E+00  4.554680E+05
9.576800E+00  4.534195E+05
9.593100E+00  4.513555E+05
9.609400E+00  4.492915E+05
9.625800E+00  4.472275E+05
9.642100E+00  4.451635E+05
9.658400E+00  4.430944E+05
9.674800E+00  4.410200E+05
9.691100E+00  4.389302E+05
9.707400E+00  4.368404E+05
9.723800E+00  4.347558E+05
9.740100E+00  4.326660E+05
9.756500E+00  4.305710E+05
9.772800E+00  4.284709E+05
9.789100E+00  4.263605E+05
9.805500E+00  4.242500E+05
9.821800E+00  4.221448E+05
9.838100E+00  4.200343E+05
9.854500E+00  4.179187E+05
9.870800E+00  4.157980E+05
9.887100E+00  4.136669E+05
9.903500E+00  4.115306E+05
9.919800E+00  4.094099E+05
9.936200E+00  4.072840E+05
9.952500E+00  4.051529E+05
9.968800E+00  4.030115E+05
9.985200E+00  4.008649E+05
1.000200E+01  3.987132E+05
1.001800E+01  3.965770E+05
1.003400E+01  3.944356E+05
1.005100E+01  3.922890E+05
1.006700E+01  3.901373E+05
1.008300E+01  3.879804E+05
1.010000E+01  3.858132E+05
1.011600E+01  3.836615E+05
1.013200E+01  3.815098E+05
1.014900E+01  3.793529E+05
1.016500E+01  3.771857E+05
1.018100E+01  3.750185E+05
1.019800E+01  3.728461E+05
1.021400E+01  3.706841E+05
1.023000E+01  3.685220E+05
1.024700E+01  3.663548E+05
1.026300E+01  3.641825E+05
1.027900E+01  3.620050E+05
1.029600E+01  3.598326E+05
1.031200E+01  3.576654E+05
1.032800E+01  3.554930E+05
1.034500E+01  3.533258E+05
1.036100E+01  3.511483E+05
1.037700E+01  3.489605E+05
1.039400E+01  3.467881E+05
1.041000E+01  3.446158E+05
1.042600E+01  3.424434E+05
1.044300E+01  3.402710E+05
1.045900E+01  3.380935E+05
1.047500E+01  3.359057E+05
1.049200E+01  3.337282E+05
1.050800E+01  3.315610E+05
1.052400E+01  3.293938E+05
1.054100E+01  3.272162E+05
1.055700E+01  3.250439E+05
1.057300E+01  3.228560E+05
1.059000E+01  3.206837E+05
1.060600E+01  3.185216E+05
1.062200E+01  3.163544E+05
1.063900E+01  3.141872E+05
1.065500E+01  3.120149E+05
1.067100E+01  3.098374E+05
1.068800E+01  3.076650E+05
1.070400E+01  3.055081E+05
1.072000E+01  3.033512E+05
1.073700E+01  3.011892E+05
1.075300E+01  2.990272E+05
1.076900E+01  2.968600E+05
1.078600E+01  2.947031E+05
1.080200E+01  2.925514E+05
1.081800E+01  2.904048E+05
1.083500E+01  2.882531E+05
1.085100E+01  2.861014E+05
1.086700E+01  2.839496E+05
1.088400E+01  2.818031E+05
1.090000E+01  2.796668E+05
1.091600E+01  2.775358E+05
1.093300E+01  2.753995E+05
1.094900E+01  2.732581E+05
1.096500E+01  2.711219E+05
1.098200E+01  2.689908E+05
1.099800E+01  2.668752E+05
1.101400E+01  2.647544E+05
1.103100E+01  2.626337E+05
1.104700E+01  2.605129E+05
1.106300E+01  2.583922E+05
1.108000E+01  2.562869E+05
1.109600E+01  2.541868E+05
1.111200E+01  2.520918E+05
1.112900E+01  2.499917E+05
1.114500E+01  2.478916E+05
1.116100E+01  2.457863E+05
1.117800E+01  2.437068E+05
1.119400E+01  2.416325E+05
1.121000E+01  2.395582E+05
1.122700E+01  2.374838E+05
1.124300E+01  2.354044E+05
1.125900E+01  2.333249E+05
1.127600E+01  2.312712E+05
1.129200E+01  2.292227E+05
1.130800E+01  2.271742E+05
1.132500E+01  2.251308E+05
1.134100E+01  2.230823E+05
1.135700E+01  2.210286E+05
1.137400E+01  2.190059E+05
1.139000E+01  2.169832E+05
1.140600E+01  2.149656E+05
1.142300E+01  2.129480E+05
1.143900E+01  2.109253E+05
1.145500E+01  2.089129E+05
1.147200E+01  2.069160E+05
1.148800E+01  2.049294E+05
1.150400E+01  2.029428E+05
1.152100E+01  2.009562E+05
1.153700E+01  1.989696E+05
1.155300E+01  1.969933E+05
1.157000E+01  1.950325E+05
1.158600E+01  1.930769E+05
1.160200E+01  1.911264E+05
1.161900E+01  1.891811E+05
1.163500E+01  1.872254E+05
1.165100E+01  1.852904E+05
1.166800E+01  1.833658E+05
1.168400E+01  1.814514E+05
1.170000E+01  1.795422E+05
1.171700E+01  1.776330E+05
1.173300E+01  1.757186E+05
1.174900E+01  1.738198E+05
1.176600E+01  1.719364E+05
1.178200E+01  1.700684E+05
1.179800E+01  1.681954E+05
1.181500E+01  1.663274E+05
1.183100E+01  1.644544E+05
1.184800E+01  1.626019E+05
1.186400E+01  1.607701E+05
1.188000E+01  1.589383E+05
1.189700E+01  1.571168E+05
1.191300E+01  1.552902E+05
1.192900E+01  1.534687E+05
1.194600E+01  1.516576E+05
1.196200E+01  1.498722E+05
1.197800E+01  1.480920E+05
1.199500E+01  1.463118E+05
1.201100E+01  1.445368E+05
1.202700E+01  1.427669E+05
1.204400E+01  1.410022E+05
1.206000E+01  1.392684E+05
1.207600E+01  1.375346E+05
