# (E [MeV])  (Flux [1/MeV/cm^2/s]
3.480000E-03  2.149856E+02
5.214800E-03  5.351364E+02
6.949500E-03  8.552343E+02
8.684300E-03  1.385028E+03
1.041900E-02  1.916091E+03
1.215400E-02  2.653517E+03
1.388900E-02  3.393429E+03
1.562300E-02  4.336583E+03
1.735800E-02  5.283493E+03
1.909300E-02  6.429995E+03
2.082800E-02  7.581628E+03
2.256200E-02  8.930049E+03
2.429700E-02  1.028429E+04
2.603200E-02  1.183214E+04
2.776700E-02  1.338740E+04
2.950100E-02  1.513310E+04
3.123600E-02  1.688727E+04
3.297100E-02  1.882817E+04
3.470600E-02  2.077859E+04
3.644000E-02  2.291364E+04
3.817500E-02  2.505926E+04
3.991000E-02  2.738580E+04
4.164500E-02  2.972398E+04
4.337900E-02  3.224043E+04
4.511400E-02  3.476958E+04
4.684900E-02  3.747383E+04
4.858400E-02  4.019183E+04
5.031800E-02  4.308176E+04
5.205300E-02  4.598650E+04
5.378800E-02  4.906052E+04
5.552300E-02  5.215041E+04
5.725700E-02  5.540746E+04
5.899200E-02  5.867668E+04
6.072700E-02  6.211518E+04
6.246200E-02  6.556955E+04
6.419600E-02  6.918262E+04
6.593100E-02  7.281685E+04
6.766600E-02  7.660449E+04
6.940100E-02  8.041329E+04
7.113500E-02  8.438079E+04
7.287000E-02  8.836416E+04
7.460500E-02  9.250094E+04
7.634000E-02  9.665888E+04
7.807400E-02  1.009702E+05
7.980900E-02  1.052974E+05
8.154400E-02  1.097728E+05
8.327900E-02  1.142746E+05
8.501300E-02  1.189192E+05
8.674800E-02  1.235850E+05
8.848300E-02  1.283936E+05
9.021800E-02  1.332234E+05
9.195200E-02  1.381907E+05
9.368700E-02  1.431897E+05
9.542200E-02  1.483210E+05
9.715700E-02  1.534788E+05
9.889200E-02  1.587688E+05
1.006300E-01  1.640905E+05
1.023600E-01  1.695392E+05
1.041000E-01  1.750144E+05
1.058300E-01  1.806165E+05
1.075700E-01  1.862503E+05
1.093000E-01  1.920058E+05
1.110300E-01  1.977931E+05
1.127700E-01  2.037020E+05
1.145000E-01  2.096427E+05
1.162400E-01  2.156998E+05
1.179700E-01  2.217885E+05
1.197100E-01  2.279990E+05
1.214400E-01  2.342359E+05
1.231800E-01  2.405892E+05
1.249100E-01  2.469742E+05
1.266500E-01  2.534704E+05
1.283800E-01  2.600035E+05
1.301200E-01  2.666477E+05
1.318500E-01  2.733184E+05
1.335900E-01  2.801002E+05
1.353200E-01  2.869137E+05
1.370600E-01  2.938383E+05
1.387900E-01  3.007947E+05
1.405300E-01  3.078515E+05
1.422600E-01  3.149454E+05
1.440000E-01  3.221398E+05
1.457300E-01  3.293660E+05
1.474600E-01  3.366979E+05
1.492000E-01  3.440616E+05
1.509300E-01  3.515205E+05
1.526700E-01  3.590164E+05
1.544000E-01  3.666076E+05
1.561400E-01  3.742305E+05
1.578700E-01  3.819539E+05
1.596100E-01  3.897037E+05
1.613400E-01  3.975541E+05
1.630800E-01  4.054362E+05
1.648100E-01  4.134082E+05
1.665500E-01  4.214173E+05
1.682800E-01  4.295110E+05
1.700200E-01  4.376417E+05
1.717500E-01  4.458571E+05
1.734900E-01  4.541095E+05
1.752200E-01  4.624465E+05
1.769600E-01  4.708153E+05
1.786900E-01  4.792740E+05
1.804200E-01  4.877644E+05
1.821600E-01  4.963343E+05
1.838900E-01  5.049411E+05
1.856300E-01  5.136273E+05
1.873600E-01  5.223505E+05
1.891000E-01  5.311689E+05
1.908300E-01  5.400032E+05
1.925700E-01  5.488904E+05
1.943000E-01  5.578834E+05
1.960400E-01  5.668764E+05
1.977700E-01  5.759223E+05
1.995100E-01  5.850740E+05
2.012400E-01  5.942257E+05
2.029800E-01  6.034832E+05
2.047100E-01  6.127407E+05
2.064500E-01  6.220511E+05
2.081800E-01  6.314673E+05
2.099200E-01  6.408835E+05
2.116500E-01  6.503526E+05
2.133900E-01  6.599275E+05
2.151200E-01  6.695024E+05
2.168500E-01  6.791302E+05
2.185900E-01  6.888109E+05
2.203200E-01  6.985445E+05
2.220600E-01  7.083310E+05
2.237900E-01  7.181704E+05
2.255300E-01  7.280627E+05
2.272600E-01  7.380079E+05
2.290000E-01  7.479531E+05
2.307300E-01  7.580041E+05
2.324700E-01  7.680551E+05
2.342000E-01  7.781590E+05
2.359400E-01  7.883158E+05
2.376700E-01  7.985255E+05
2.394100E-01  8.087352E+05
2.411400E-01  8.190507E+05
2.428800E-01  8.293662E+05
2.446100E-01  8.397875E+05
2.463500E-01  8.502088E+05
2.480800E-01  8.606301E+05
2.498200E-01  8.711572E+05
2.515500E-01  8.816843E+05
2.532800E-01  8.923172E+05
2.550200E-01  9.029501E+05
2.567500E-01  9.135830E+05
2.584900E-01  9.243217E+05
2.602200E-01  9.350604E+05
2.619600E-01  9.458520E+05
2.636900E-01  9.566965E+05
2.654300E-01  9.675939E+05
2.671600E-01  9.784384E+05
2.689000E-01  9.893887E+05
2.706300E-01  1.000392E+06
2.723700E-01  1.011448E+06
2.741000E-01  1.022451E+06
2.758400E-01  1.033560E+06
2.775700E-01  1.044722E+06
2.793100E-01  1.055831E+06
2.810400E-01  1.067046E+06
2.827800E-01  1.078261E+06
2.845100E-01  1.089528E+06
2.862500E-01  1.100796E+06
2.879800E-01  1.112170E+06
2.897100E-01  1.123543E+06
2.914500E-01  1.134970E+06
2.931800E-01  1.146396E+06
2.949200E-01  1.157822E+06
2.966500E-01  1.169302E+06
2.983900E-01  1.180887E+06
3.001200E-01  1.192419E+06
3.018600E-01  1.204004E+06
3.035900E-01  1.215642E+06
3.053300E-01  1.227280E+06
3.070600E-01  1.238971E+06
3.088000E-01  1.250662E+06
3.105300E-01  1.262406E+06
3.122700E-01  1.274149E+06
3.140000E-01  1.285946E+06
3.157400E-01  1.297743E+06
3.174700E-01  1.309592E+06
3.192100E-01  1.321495E+06
3.209400E-01  1.333397E+06
3.226700E-01  1.345353E+06
3.244100E-01  1.357255E+06
3.261400E-01  1.369264E+06
3.278800E-01  1.381219E+06
3.296100E-01  1.393280E+06
3.313500E-01  1.405341E+06
3.330800E-01  1.417403E+06
3.348200E-01  1.429517E+06
3.365500E-01  1.441631E+06
3.382900E-01  1.453745E+06
3.400200E-01  1.465912E+06
3.417600E-01  1.478132E+06
3.434900E-01  1.490352E+06
3.452300E-01  1.502572E+06
3.469600E-01  1.514844E+06
3.487000E-01  1.527064E+06
3.504300E-01  1.539390E+06
3.521700E-01  1.551716E+06
3.539000E-01  1.564041E+06
3.556400E-01  1.576367E+06
3.573700E-01  1.588746E+06
3.591000E-01  1.601177E+06
3.608400E-01  1.613556E+06
3.625700E-01  1.625987E+06
3.643100E-01  1.638419E+06
3.660400E-01  1.650850E+06
3.677800E-01  1.663335E+06
3.695100E-01  1.675819E+06
3.712500E-01  1.688356E+06
3.729800E-01  1.700894E+06
3.747200E-01  1.713431E+06
3.764500E-01  1.726021E+06
3.781900E-01  1.738558E+06
3.799200E-01  1.751149E+06
3.816600E-01  1.763739E+06
3.833900E-01  1.776329E+06
3.851300E-01  1.788972E+06
3.868600E-01  1.801615E+06
3.886000E-01  1.814258E+06
3.903300E-01  1.826954E+06
3.920700E-01  1.839650E+06
3.938000E-01  1.852346E+06
3.955300E-01  1.865042E+06
3.972700E-01  1.877738E+06
3.990000E-01  1.890434E+06
4.007400E-01  1.903183E+06
4.024700E-01  1.915932E+06
4.042100E-01  1.928681E+06
4.059400E-01  1.941483E+06
4.076800E-01  1.954232E+06
4.094100E-01  1.966981E+06
4.111500E-01  1.979783E+06
4.128800E-01  1.992584E+06
4.146200E-01  2.005386E+06
4.163500E-01  2.018188E+06
4.180900E-01  2.030990E+06
4.198200E-01  2.043844E+06
4.215600E-01  2.056699E+06
4.232900E-01  2.069501E+06
4.250300E-01  2.082356E+06
4.267600E-01  2.095210E+06
4.284900E-01  2.108065E+06
4.302300E-01  2.120920E+06
4.319600E-01  2.133774E+06
4.337000E-01  2.146682E+06
4.354300E-01  2.159537E+06
4.371700E-01  2.172391E+06
4.389000E-01  2.185299E+06
4.406400E-01  2.198154E+06
4.423700E-01  2.211061E+06
4.441100E-01  2.223916E+06
4.458400E-01  2.236824E+06
4.475800E-01  2.249678E+06
4.493100E-01  2.262586E+06
4.510500E-01  2.275494E+06
4.527800E-01  2.288401E+06
4.545200E-01  2.301256E+06
4.562500E-01  2.314163E+06
4.579900E-01  2.327071E+06
4.597200E-01  2.339979E+06
4.614600E-01  2.352833E+06
4.631900E-01  2.365741E+06
4.649200E-01  2.378648E+06
4.666600E-01  2.391556E+06
4.683900E-01  2.404411E+06
4.701300E-01  2.417318E+06
4.718600E-01  2.430173E+06
4.736000E-01  2.443081E+06
4.753300E-01  2.455935E+06
4.770700E-01  2.468790E+06
4.788000E-01  2.481645E+06
4.805400E-01  2.494552E+06
4.822700E-01  2.507407E+06
4.840100E-01  2.520262E+06
4.857400E-01  2.533116E+06
4.874800E-01  2.545971E+06
4.892100E-01  2.558773E+06
4.909500E-01  2.571628E+06
4.926800E-01  2.584482E+06
4.944200E-01  2.597337E+06
4.961500E-01  2.610139E+06
4.978900E-01  2.622941E+06
4.996200E-01  2.635742E+06
5.013500E-01  2.648544E+06
5.030900E-01  2.661293E+06
5.048200E-01  2.674095E+06
5.065600E-01  2.686844E+06
5.082900E-01  2.699646E+06
5.100300E-01  2.712395E+06
5.117600E-01  2.725144E+06
5.135000E-01  2.737839E+06
5.152300E-01  2.750588E+06
5.169700E-01  2.763284E+06
5.187000E-01  2.775980E+06
5.204400E-01  2.788729E+06
5.221700E-01  2.801425E+06
5.239100E-01  2.814068E+06
5.256400E-01  2.826712E+06
5.273800E-01  2.839407E+06
5.291100E-01  2.852051E+06
5.308500E-01  2.864641E+06
5.325800E-01  2.877231E+06
5.343100E-01  2.889874E+06
5.360500E-01  2.902464E+06
5.377800E-01  2.915002E+06
5.395200E-01  2.927539E+06
5.412500E-01  2.940129E+06
5.429900E-01  2.952666E+06
5.447200E-01  2.965151E+06
5.464600E-01  2.977635E+06
5.481900E-01  2.990172E+06
5.499300E-01  3.002657E+06
5.516600E-01  3.015088E+06
5.534000E-01  3.027520E+06
5.551300E-01  3.039951E+06
5.568700E-01  3.052383E+06
5.586000E-01  3.064762E+06
5.603400E-01  3.077140E+06
5.620700E-01  3.089466E+06
5.638100E-01  3.101844E+06
5.655400E-01  3.114170E+06
5.672800E-01  3.126496E+06
5.690100E-01  3.138769E+06
5.707400E-01  3.150988E+06
5.724800E-01  3.163261E+06
5.742100E-01  3.175534E+06
5.759500E-01  3.187701E+06
5.776800E-01  3.199921E+06
5.794200E-01  3.212088E+06
5.811500E-01  3.224255E+06
5.828900E-01  3.236369E+06
5.846200E-01  3.248483E+06
5.863600E-01  3.260597E+06
5.880900E-01  3.272658E+06
5.898300E-01  3.284720E+06
5.915600E-01  3.296728E+06
5.933000E-01  3.308736E+06
5.950300E-01  3.320745E+06
5.967700E-01  3.332700E+06
5.985000E-01  3.344655E+06
6.002400E-01  3.356558E+06
6.019700E-01  3.368460E+06
6.037100E-01  3.380310E+06
6.054400E-01  3.392212E+06
6.071700E-01  3.404009E+06
6.089100E-01  3.415806E+06
6.106400E-01  3.427603E+06
6.123800E-01  3.439346E+06
6.141100E-01  3.451090E+06
6.158500E-01  3.462834E+06
6.175800E-01  3.474472E+06
6.193200E-01  3.486110E+06
6.210500E-01  3.497748E+06
6.227900E-01  3.509386E+06
6.245200E-01  3.520971E+06
6.262600E-01  3.532503E+06
6.279900E-01  3.544036E+06
6.297300E-01  3.555568E+06
6.314600E-01  3.567047E+06
6.332000E-01  3.578473E+06
6.349300E-01  3.589900E+06
6.366700E-01  3.601273E+06
6.384000E-01  3.612647E+06
6.401300E-01  3.623967E+06
6.418700E-01  3.635288E+06
6.436000E-01  3.646609E+06
6.453400E-01  3.657823E+06
6.470700E-01  3.669091E+06
6.488100E-01  3.680253E+06
6.505400E-01  3.691468E+06
6.522800E-01  3.702577E+06
6.540100E-01  3.713686E+06
6.557500E-01  3.724742E+06
6.574800E-01  3.735798E+06
6.592200E-01  3.746801E+06
6.609500E-01  3.757804E+06
6.626900E-01  3.768755E+06
6.644200E-01  3.779652E+06
6.661600E-01  3.790550E+06
6.678900E-01  3.801447E+06
6.696300E-01  3.812291E+06
6.713600E-01  3.823083E+06
6.731000E-01  3.833822E+06
6.748300E-01  3.844560E+06
6.765600E-01  3.855246E+06
6.783000E-01  3.865932E+06
6.800300E-01  3.876565E+06
6.817700E-01  3.887198E+06
6.835000E-01  3.897778E+06
6.852400E-01  3.908305E+06
6.869700E-01  3.918832E+06
6.887100E-01  3.929306E+06
6.904400E-01  3.939728E+06
6.921800E-01  3.950096E+06
6.939100E-01  3.960464E+06
6.956500E-01  3.970833E+06
6.973800E-01  3.981095E+06
6.991200E-01  3.991358E+06
7.008500E-01  4.001620E+06
7.025900E-01  4.011777E+06
7.043200E-01  4.021934E+06
7.060600E-01  4.032091E+06
7.077900E-01  4.042142E+06
7.095300E-01  4.052246E+06
7.112600E-01  4.062244E+06
7.129900E-01  4.072242E+06
7.147300E-01  4.082187E+06
7.164600E-01  4.092080E+06
7.182000E-01  4.101919E+06
7.199300E-01  4.111758E+06
7.216700E-01  4.121545E+06
7.234000E-01  4.131331E+06
7.251400E-01  4.141012E+06
7.268700E-01  4.150693E+06
7.286100E-01  4.160320E+06
7.303400E-01  4.169948E+06
7.320800E-01  4.179470E+06
7.338100E-01  4.188992E+06
7.355500E-01  4.198514E+06
7.372800E-01  4.207983E+06
7.390200E-01  4.217347E+06
7.407500E-01  4.226710E+06
7.424900E-01  4.236020E+06
7.442200E-01  4.245331E+06
7.459600E-01  4.254588E+06
7.476900E-01  4.263793E+06
7.494200E-01  4.272945E+06
7.511600E-01  4.282096E+06
7.528900E-01  4.291195E+06
7.546300E-01  4.300241E+06
7.563600E-01  4.309234E+06
7.581000E-01  4.318174E+06
7.598300E-01  4.327114E+06
7.615700E-01  4.336001E+06
7.633000E-01  4.344836E+06
7.650400E-01  4.353617E+06
7.667700E-01  4.362346E+06
7.685100E-01  4.371074E+06
7.702400E-01  4.379750E+06
7.719800E-01  4.388372E+06
7.737100E-01  4.396942E+06
7.754500E-01  4.405512E+06
7.771800E-01  4.413976E+06
7.789200E-01  4.422440E+06
7.806500E-01  4.430851E+06
7.823800E-01  4.439262E+06
7.841200E-01  4.447568E+06
7.858500E-01  4.455873E+06
7.875900E-01  4.464072E+06
7.893200E-01  4.472272E+06
7.910600E-01  4.480418E+06
7.927900E-01  4.488512E+06
7.945300E-01  4.496553E+06
7.962600E-01  4.504594E+06
7.980000E-01  4.512582E+06
7.997300E-01  4.520464E+06
8.014700E-01  4.528346E+06
8.032000E-01  4.536175E+06
8.049400E-01  4.543951E+06
8.066700E-01  4.551728E+06
8.084100E-01  4.559398E+06
8.101400E-01  4.567069E+06
8.118800E-01  4.574633E+06
8.136100E-01  4.582198E+06
8.153500E-01  4.589710E+06
8.170800E-01  4.597169E+06
8.188100E-01  4.604628E+06
8.205500E-01  4.611981E+06
8.222800E-01  4.619334E+06
8.240200E-01  4.626581E+06
8.257500E-01  4.633828E+06
8.274900E-01  4.640970E+06
8.292200E-01  4.648111E+06
8.309600E-01  4.655200E+06
8.326900E-01  4.662236E+06
8.344300E-01  4.669218E+06
8.361600E-01  4.676148E+06
8.379000E-01  4.683078E+06
8.396300E-01  4.689955E+06
8.413700E-01  4.696726E+06
8.431000E-01  4.703498E+06
8.448400E-01  4.710163E+06
8.465700E-01  4.716828E+06
8.483100E-01  4.723388E+06
8.500400E-01  4.729948E+06
8.517800E-01  4.736454E+06
8.535100E-01  4.742961E+06
8.552400E-01  4.749362E+06
8.569800E-01  4.755710E+06
8.587100E-01  4.762005E+06
8.604500E-01  4.768247E+06
8.621800E-01  4.774437E+06
8.639200E-01  4.780626E+06
8.656500E-01  4.786709E+06
8.673900E-01  4.792793E+06
8.691200E-01  4.798771E+06
8.708600E-01  4.804695E+06
8.725900E-01  4.810620E+06
8.743300E-01  4.816492E+06
8.760600E-01  4.822258E+06
8.778000E-01  4.828024E+06
8.795300E-01  4.833738E+06
8.812700E-01  4.839345E+06
8.830000E-01  4.844952E+06
8.847400E-01  4.850507E+06
8.864700E-01  4.855956E+06
8.882000E-01  4.861404E+06
8.899400E-01  4.866800E+06
8.916700E-01  4.872143E+06
8.934100E-01  4.877380E+06
8.951400E-01  4.882617E+06
8.968800E-01  4.887801E+06
8.986100E-01  4.892933E+06
9.003500E-01  4.898011E+06
9.020800E-01  4.903036E+06
9.038200E-01  4.908009E+06
9.055500E-01  4.912929E+06
9.072900E-01  4.917796E+06
9.090200E-01  4.922557E+06
9.107600E-01  4.927318E+06
9.124900E-01  4.932026E+06
9.142300E-01  4.936681E+06
9.159600E-01  4.941283E+06
9.177000E-01  4.945780E+06
9.194300E-01  4.950276E+06
9.211700E-01  4.954720E+06
9.229000E-01  4.959110E+06
9.246300E-01  4.963395E+06
9.263700E-01  4.967680E+06
9.281000E-01  4.971859E+06
9.298400E-01  4.976038E+06
9.315700E-01  4.980165E+06
9.333100E-01  4.984185E+06
9.350400E-01  4.988206E+06
9.367800E-01  4.992173E+06
9.385100E-01  4.996035E+06
9.402500E-01  4.999896E+06
9.419800E-01  5.003652E+06
9.437200E-01  5.007355E+06
9.454500E-01  5.011005E+06
9.471900E-01  5.014603E+06
9.489200E-01  5.018200E+06
9.506600E-01  5.021691E+06
9.523900E-01  5.025130E+06
9.541300E-01  5.028515E+06
9.558600E-01  5.031848E+06
9.576000E-01  5.035128E+06
9.593300E-01  5.038355E+06
9.610600E-01  5.041529E+06
9.628000E-01  5.044597E+06
9.645300E-01  5.047665E+06
9.662700E-01  5.050680E+06
9.680000E-01  5.053643E+06
9.697400E-01  5.056499E+06
9.714700E-01  5.059356E+06
9.732100E-01  5.062054E+06
9.749400E-01  5.064805E+06
9.766800E-01  5.067397E+06
9.784100E-01  5.070042E+06
9.801500E-01  5.072581E+06
9.818800E-01  5.075120E+06
9.836200E-01  5.077501E+06
9.853500E-01  5.079881E+06
9.870900E-01  5.082209E+06
9.888200E-01  5.084484E+06
9.905600E-01  5.086652E+06
9.922900E-01  5.088821E+06
9.940200E-01  5.090884E+06
9.957600E-01  5.092895E+06
9.974900E-01  5.094852E+06
9.992300E-01  5.096809E+06
1.001000E+00  5.098661E+06
1.002700E+00  5.100459E+06
1.004400E+00  5.102205E+06
1.006200E+00  5.103898E+06
1.007900E+00  5.105485E+06
1.009600E+00  5.107072E+06
1.011400E+00  5.108553E+06
1.013100E+00  5.109981E+06
1.014800E+00  5.111357E+06
1.016600E+00  5.112679E+06
1.018300E+00  5.114002E+06
1.020000E+00  5.115218E+06
1.021800E+00  5.116382E+06
1.023500E+00  5.117493E+06
1.025300E+00  5.118498E+06
1.027000E+00  5.119503E+06
1.028700E+00  5.120403E+06
1.030500E+00  5.121302E+06
1.032200E+00  5.122042E+06
1.033900E+00  5.122783E+06
1.035700E+00  5.123524E+06
1.037400E+00  5.124158E+06
1.039100E+00  5.124740E+06
1.040900E+00  5.125269E+06
1.042600E+00  5.125693E+06
1.044300E+00  5.126063E+06
1.046100E+00  5.126380E+06
1.047800E+00  5.126698E+06
1.049500E+00  5.126909E+06
1.051300E+00  5.127068E+06
1.053000E+00  5.127121E+06
1.054700E+00  5.127174E+06
1.056500E+00  5.127121E+06
1.058200E+00  5.127068E+06
1.059900E+00  5.126909E+06
1.061700E+00  5.126751E+06
1.063400E+00  5.126486E+06
1.065100E+00  5.126169E+06
1.066900E+00  5.125746E+06
1.068600E+00  5.125375E+06
1.070400E+00  5.124846E+06
1.072100E+00  5.124264E+06
1.073800E+00  5.123630E+06
1.075600E+00  5.122995E+06
1.077300E+00  5.122201E+06
1.079000E+00  5.121461E+06
1.080800E+00  5.120561E+06
1.082500E+00  5.119662E+06
1.084200E+00  5.118657E+06
1.086000E+00  5.117652E+06
1.087700E+00  5.116541E+06
1.089400E+00  5.115377E+06
1.091200E+00  5.114160E+06
1.092900E+00  5.112891E+06
1.094600E+00  5.111515E+06
1.096400E+00  5.110140E+06
1.098100E+00  5.108659E+06
1.099800E+00  5.107178E+06
1.101600E+00  5.105591E+06
1.103300E+00  5.104004E+06
1.105000E+00  5.102205E+06
1.106800E+00  5.100406E+06
1.108500E+00  5.098608E+06
1.110300E+00  5.096756E+06
1.112000E+00  5.094799E+06
1.113700E+00  5.092789E+06
1.115500E+00  5.090726E+06
1.117200E+00  5.088663E+06
1.118900E+00  5.086441E+06
1.120700E+00  5.084219E+06
1.122400E+00  5.081838E+06
1.124100E+00  5.079458E+06
1.125900E+00  5.077025E+06
1.127600E+00  5.074538E+06
1.129300E+00  5.071999E+06
1.131100E+00  5.069460E+06
1.132800E+00  5.066762E+06
1.134500E+00  5.064064E+06
1.136300E+00  5.061260E+06
1.138000E+00  5.058457E+06
1.139700E+00  5.055441E+06
1.141500E+00  5.052426E+06
1.143200E+00  5.049411E+06
1.144900E+00  5.046343E+06
1.146700E+00  5.043169E+06
1.148400E+00  5.039995E+06
1.150200E+00  5.036715E+06
1.151900E+00  5.033382E+06
1.153600E+00  5.029996E+06
1.155400E+00  5.026611E+06
1.157100E+00  5.022961E+06
1.158800E+00  5.019311E+06
1.160600E+00  5.015661E+06
1.162300E+00  5.012010E+06
1.164000E+00  5.008255E+06
1.165800E+00  5.004446E+06
1.167500E+00  5.000584E+06
1.169200E+00  4.996670E+06
1.171000E+00  4.992649E+06
1.172700E+00  4.988629E+06
1.174400E+00  4.984397E+06
1.176200E+00  4.980112E+06
1.177900E+00  4.975880E+06
1.179600E+00  4.971648E+06
1.181400E+00  4.967257E+06
1.183100E+00  4.962866E+06
1.184800E+00  4.958370E+06
1.186600E+00  4.953873E+06
1.188300E+00  4.949271E+06
1.190100E+00  4.944616E+06
1.191800E+00  4.939802E+06
1.193500E+00  4.934882E+06
1.195300E+00  4.930016E+06
1.197000E+00  4.925149E+06
1.198700E+00  4.920176E+06
1.200500E+00  4.915204E+06
1.202200E+00  4.910072E+06
1.203900E+00  4.904941E+06
1.205700E+00  4.899757E+06
1.207400E+00  4.894520E+06
1.209100E+00  4.889071E+06
1.210900E+00  4.883569E+06
1.212600E+00  4.878068E+06
1.214300E+00  4.872619E+06
1.216100E+00  4.867012E+06
1.217800E+00  4.861404E+06
1.219500E+00  4.855691E+06
1.221300E+00  4.850031E+06
1.223000E+00  4.844212E+06
1.224700E+00  4.838340E+06
1.226500E+00  4.832256E+06
1.228200E+00  4.826120E+06
1.230000E+00  4.820036E+06
1.231700E+00  4.813953E+06
1.233400E+00  4.807764E+06
1.235200E+00  4.801574E+06
1.236900E+00  4.795279E+06
1.238600E+00  4.788984E+06
1.240400E+00  4.782530E+06
1.242100E+00  4.776076E+06
1.243800E+00  4.769411E+06
1.245600E+00  4.762640E+06
1.247300E+00  4.755974E+06
1.249000E+00  4.749309E+06
1.250800E+00  4.742538E+06
1.252500E+00  4.735714E+06
1.254200E+00  4.728837E+06
1.256000E+00  4.721960E+06
1.257700E+00  4.714924E+06
1.259400E+00  4.707836E+06
1.261200E+00  4.700535E+06
1.262900E+00  4.693182E+06
1.264600E+00  4.685935E+06
1.266400E+00  4.678635E+06
1.268100E+00  4.671229E+06
1.269900E+00  4.663823E+06
1.271600E+00  4.656364E+06
1.273300E+00  4.648852E+06
1.275100E+00  4.641234E+06
1.276800E+00  4.633564E+06
1.278500E+00  4.625682E+06
1.280300E+00  4.617747E+06
1.282000E+00  4.609812E+06
1.283700E+00  4.601930E+06
