# E_R [keV]  \xi_T*d_E/dx_T [keV/Å]  x_T [Å]
0.0011	0.000015827766654571068	2.4298400482731726
0.0012	0.000016284621656812313	2.742847249229036
0.0013000000000000002	0.00001685995773655788	3.0458868312113956
0.0014	0.00001740918781617537	3.338869229227113
0.0015	0.000017928295587952784	3.6229926746796646
0.0016	0.000018423305513458132	3.8991946612034227
0.0017	0.000018898735938867424	4.1682168426322335
0.0018000000000000002	0.00001935559094110867	4.430682161186192
0.002	0.000020213574676087002	4.938107631177651
0.0022500000000000003	0.000021206104719417704	5.544056956496611
0.00249999	0.000022119814723900194	6.123327814108679
0.00274999	0.000022963239343422486	6.680051264011658
0.00299999	0.00002374641934726461	7.217408594289768
0.00324999	0.00002448943627398664	7.737772707662296
0.00349999	0.000025187269738948542	8.243039310551925
0.00374999	0.00002584494012679033	8.73489399335833
0.00399999	0.000026472488206792033	9.214671369288725
0.004499990000000001	0.0000276372174432752	10.142309192771254
0.00499999	0.0000287015389869581	11.033283715706562
0.005499990000000001	0.000029685534376400776	11.893025517606716
0.00599999	0.00003059924438088327	12.725711403304187
0.006499990000000001	0.000031447689385045576	13.534768734797888
0.00699999	0.000032250950927447765	14.322862332373093
0.00799999	0.000033716903242331746	15.844518747926097
0.008999990000000001	0.00003503224401801533	17.30471065261191
0.00999999	0.00003622709556233858	18.7135331963987
0.0109999	0.00003732655979850157	20.07833483159159
0.0119999	0.00003834569788042434	21.405056062162082
0.0129999	0.000039284509808106895	22.698340954921264
0.013999900000000001	0.0000401680975047493	23.9619832345347
0.0149999	0.00004099144058571154	25.19906252304054
0.0159999	0.000041774620589553674	26.412138927120765
0.016999900000000002	0.000042507596746995675	27.603395555332426
0.0179999	0.00004320543021195757	28.774784534459222
0.0199999	0.00004450570983372111	31.063936408450438
0.0224999	0.000045971662148605095	33.8377357110166
0.024999900000000002	0.00004729202330892869	36.528812019559666
0.0274999	0.00004850695639181199	39.148742375055306
0.0299999	0.00004961646139725502	41.70663594184022
0.0324999	0.000050640619863817796	44.21017563434877
0.0349999	0.00005160453371470042	46.66506944001698
0.037499899999999996	0.00005250318256526287	49.07604592984888
0.0399999	0.000053346607184785165	51.44737282414729
0.044999899999999995	0.0000549029264231894	56.0843053029439
0.0499999	0.000056308634122393216	60.59791069001208
0.0549999	0.00005759887297487674	65.00479291052606
0.059999899999999995	0.00005877866336527994	69.31824456049202
0.0649999	0.00005988314798608295	73.54876849767936
0.0699999	0.000060917347221925765	77.7044227266881
0.0799999	0.00006281003223121091	85.81794310905184
0.0899999	0.00006451696300881556	93.70251876220397
0.0999999	0.0000660783026318598	101.39004306151323
0.11	0.00006751915302354372	108.9051100035083
0.12	0.0000688696364917074	116.26647828732692
0.13	0.00007014481419027088	123.48885343227754
0.13999899999999998	0.00007134468611923413	130.58424499241548
0.149999	0.00007248933381715726	137.56480881415592
0.159999	0.00007359381843796025	144.43791014363325
0.169999	0.00007464809921236312	151.21093152271615
0.179999	0.00007566723729428591	157.89057721559067
0.199999	0.00007760008538069115	170.99156539720923
0.224999	0.00007986929923797732	186.93107743681142
0.249999	0.00008201802386390318	202.43582391391723
0.27499900000000005	0.0000840412388738287	217.550873791171
0.299999	0.00008593392388311382	232.31835106779883
0.32499900000000004	0.00008780150696919892	246.76650434037666
0.349999	0.00008958374351640377	260.91698936498625
0.374999	0.0000912906742940084	274.794821726198
0.39999900000000005	0.00009296748276377299	288.4179697362724
0.44999900000000004	0.00009617048816410168	314.9598771601628
0.499999	0.00009923292279451001	340.6513110055262
0.549999	0.00010215478665499796	365.5795262726688
0.5999990000000001	0.00010497624282268564	389.8166931425166
0.649999	0.00010768725052829303	413.42361516669206
0.699999	0.00011034303400286026	436.4496720648112
0.799999	0.00011539856133535401	480.9256607551539
0.899999	0.00012016792674336699	523.5479931879125
0.9999990000000001	0.00012473145638113942	564.5469842294816
1.1	0.00012911927255651135	604.1011743344247
1.2	0.00013337655873124293	642.3517252354021
1.3	0.000137438049905014	679.4272967328194
1.4	0.00014139913338598475	715.4368846756282
1.5	0.00014524976840487523	750.4648524256903
1.6	0.00014898995496168542	784.5889106139532
1.7	0.00015260965228713525	817.8805183391969
1.8	0.00015616408461226495	850.3989424355452
2.	0.00016304201156908365	913.3086864542729
2.25	0.00017005046852654274	988.6373651032177
2.5	0.00017666231509744072	1061.0335840509551
2.75	0.00018296289782065788	1130.8312946576004
3.	0.0001889773186193942	1198.3175066318918
3.25	0.0001946955367243698	1263.7413991758203
3.5	0.00020026816367478496	1327.2957847457644
3.75	0.00020562491408567953	1389.1389136986675
4.	0.00021087121603449382	1449.408917286873
4.5	0.0002210977395462016	1565.6384337671643
5.	0.00023112344767230893	1676.6629014559226
5.5	0.00024086801425857545	1783.0342145880459
6.	0.0002503716023821213	1885.2375904628059
6.5	0.0002596743751200666	1983.6712024694175
7.	0.00026872110824137125	2078.685084568023
8.	0.0002861518837114986	2259.651259340816
9.	0.0003026287861000235	2430.187730641302
10.	0.0003182773250229461	2591.8983361836954
11.	0.0003331326431727465	2746.0345747144806
12.	0.00034728510747294506	2893.5978613885513
13.	0.0003607176486157655	3035.4123958286423
14.	0.0003736300779098807	3172.139140743879
15.	0.00038591546116245807	3304.3283109690883
16.	0.0003976701897585861	3432.462179281975
17.	0.0004088912514674806	3556.9463194450323
18.	0.00041967604175115794	3678.1246567314856
20.	0.0004398790736195009	3911.7105457379207
22.5	0.00046288147196311556	4189.705431410292
25.	0.00048362268906486795	4454.854588418387
27.5	0.0005023426993105509	4709.395757606935
30.	0.000519283987278277	4955.047317934666
32.5	0.0005341905133514056	5193.283721230359
35.	0.0005481110358812355	5425.174315940195
37.5	0.0005600389677474439	5651.6532126749435
40.	0.0005709758756857137	5873.569277521921
45.	0.000589868085124549	6305.825237787665
50.	0.0006042735768106043	6726.0295341545
55.	0.000615188897094922	7137.5465299080615
60.	0.0006231110640568635	7542.841599482091
65.	0.0006290396362782557	7943.665704986995
70.	0.000632469563064313	8341.52164922069
80.	0.0006348396866528635	9133.210210867317
90.	0.000631714497214455	9925.506002796667
100.	0.0006250951200665968	10724.079022163529
110.	0.0006154780712501869	11533.243827826875
120.	0.0006048689944289099	12355.904506708954
130.	0.000592762838907981	13194.172929783077
140.	0.0005796596349975453	14050.560570970654
150.	0.0005665624555486776	14926.587515611236
160.	0.00055347029648445	15823.133535458392
170.	0.0005408841921919358	16740.71565281986
180.	0.0005283016021686695	17679.8729439456
200.	0.0005036469952400265	19626.545168858775
225.	0.0004757281342184466	22191.589234938187
250.	0.0004504796157868898	24903.73462050563
275.	0.0004278497801874106	27763.622804945593
300.	0.00040753494435313457	30770.36236399432
325.	0.00038928298456744007	33922.46144447529
350.	0.00037284197792909133	37217.862401380844
375.	0.00035796025255608444	40654.325346647296
400.	0.00034443649102435485	44229.59713622529
450.	0.0003207583489081944	51787.87326522303
500.	0.00030070080778671907	59876.09709264409
550.	0.00028350920344084185	68478.33006338522
600.	0.000268580186044526	77579.56873100044
650.	0.00025546106751478154	87166.76195201748
700.	0.00024385022314243635	97227.89980014482
800.	0.00022429808414267113	118722.06822215617
900.	0.00020846574893807764	141962.94189079799
1000.	0.0001953979889432005	166856.88290502908