# E_R [keV]  \xi_T*d_E/dx_T [keV/Å]  x_T [Å]
0.0011	0.00010404610201569584	1.1982435823566124
0.0012	0.00010963476630593326	1.305053796658207
0.0013000000000000002	0.00011543899336165127	1.4064267315679773
0.0014	0.00012108012266359297	1.5028776968997604
0.0015	0.00012654788931816408	1.5950019299886702
0.0016	0.0001319232719303863	1.683261534299787
0.0017	0.00013717319473201137	1.7680313181467373
0.0018000000000000002	0.00014219158715589805	1.8496847224878454
0.002	0.0001520686958810932	2.004794166369443
0.0022500000000000003	0.0001638961343892079	2.1853077761305064
0.00249999	0.00017510767928166383	2.3535416961032505
0.00274999	0.00018595425017965523	2.511504721488004
0.00299999	0.00019641303620852814	2.6606561934144004
0.00324999	0.00020639279386966641	2.8022419746148204
0.00349999	0.0002162356862828805	2.9371848771922195
0.00374999	0.00022561095576568695	3.0662548009412145
0.00399999	0.00023483795456324223	3.1901144844186167
0.004499990000000001	0.0002525734096067508	3.424144283706729
0.00499999	0.00026944205141340625	3.6426531463794416
0.005499990000000001	0.00028558074523113273	3.848161321991904
0.00599999	0.0003010008964972572	4.042614574864944
0.006499990000000001	0.0003160332628942632	4.227469282578738
0.00699999	0.00033046114111293735	4.403894118984253
0.00799999	0.0003580851103189681	4.73523281931563
0.008999990000000001	0.00038413512917387073	5.042591640641712
0.00999999	0.0004088507118615126	5.33027253832163
0.0109999	0.0004325740215017042	5.601362495615053
0.0119999	0.00045521381459582926	5.858312254601685
0.0129999	0.0004770096053277552	6.103012894978084
0.013999900000000001	0.000497949988260155	6.336986826742875
0.0149999	0.0005182744775768961	6.561461187241557
0.0159999	0.0005379944787153052	6.777420812332345
0.016999900000000002	0.0005569959373021126	6.985743043404938
0.0179999	0.0005755183675211852	7.187164661224669
0.0199999	0.0006110919265441455	7.571643929614529
0.0224999	0.0006531893957181584	8.022727558117968
0.024999900000000002	0.0006929943719894414	8.4463584913627
0.0274999	0.0007307577749791885	8.846906246185151
0.0299999	0.0007668217678072106	9.227706214410807
0.0324999	0.0008013118102841044	9.59137167772195
0.0349999	0.0008344788220310644	9.939994015455026
0.037499899999999996	0.0008663228030480909	10.275289586890397
0.0399999	0.0008970832675190507	10.598682833822835
0.044999899999999995	0.0009556958099425818	11.214264949656691
0.0499999	0.001010704234170776	11.794272557353823
0.0549999	0.001062815677317908	12.34431781955538
0.059999899999999995	0.0011122810590051728	12.868673831080304
0.0649999	0.0011594653532270346	13.370722127469929
0.0699999	0.0012045966687300336	13.853165977113925
0.0799999	0.0012896926366268936	14.767642290833239
0.0899999	0.0013686524792418198	15.625655049787007
0.0999999	0.0014416586835720438	16.437291094383585
0.11	0.001511003742520296	17.20983522219616
0.12	0.0015767446832732112	17.948557710540825
0.13	0.0016388929112681173	18.657887787591715
0.13999899999999998	0.0016974712373796666	19.341491986871002
0.149999	0.0017536316107778895	20.002446724675007
0.159999	0.0018073854369001117	20.643012369220745
0.169999	0.0018598846649163627	21.265016831435247
0.179999	0.0019100685891552296	21.87006375867528
0.199999	0.0020042775014763744	23.035408450936544
0.224999	0.0021134275366959097	24.420152327209564
0.249999	0.002214137548293454	25.737762713896164
0.27499900000000005	0.0023077761887482485	26.998791381866265
0.299999	0.0023963964367791557	28.21096789408992
0.32499900000000004	0.0024790858574000162	29.380538408783362
0.349999	0.00255698499434353	30.512847269450326
0.374999	0.0026313484457156683	31.611936357360022
0.39999900000000005	0.0027019481027698924	32.681147790354835
0.44999900000000004	0.0028336809038969177	34.741164053950094
0.499999	0.0029544644851900084	36.71134984666851
0.549999	0.0030656674991284064	38.60564511179021
0.5999990000000001	0.0031685445438180827	40.43494828676496
0.649999	0.003265262652351171	42.20751083930828
0.699999	0.0033547953353682404	43.93020871261489
0.799999	0.003520402285356501	47.24729167674676
0.899999	0.0036691291881007777	50.41938102724019
0.9999990000000001	0.0038033711854397467	53.47148238485457
1.1	0.00392654990857151	56.42208546135178
1.2	0.004040034009975312	59.285021389847685
1.3	0.004143937544024419	62.07198331372149
1.4	0.00424156808754367	64.79201360351567
1.5	0.004331899151173629	67.45243228651286
1.6	0.004417325876752973	70.05943131810615
1.7	0.004496707720548999	72.61825158555666
1.8	0.00457243982440038	75.13334328099138
2.	0.004710331561683993	80.0466236876365
2.25	0.004864419019971968	86.00117823160187
2.5	0.00500128426789615	91.78039232286622
2.75	0.005124577045401183	97.41130115405063
3.	0.005235437896219771	102.91506317391347
3.25	0.005336261962190585	108.30875656195981
3.5	0.005428417895792867	113.60588882465275
3.75	0.005514186784492022	118.81692986259898
4.	0.005592542138928617	123.95095961429026
4.5	0.00573157441994493	134.0201937771837
5.	0.005853954762463804	143.8627728129338
5.5	0.005959911275231773	153.51540118015845
6.	0.006054234241926189	163.00749479847667
6.5	0.0061382923150262916	172.3608601671491
7.	0.00621334009263805	181.59387541732175
8.	0.006341080990700621	199.7577374957888
9.	0.006447607775334944	217.5902692828321
10.	0.00653542964275296	235.1566494229482
11.	0.006609679039751828	252.5072389795734
12.	0.006672751108170222	269.6788524419293
13.	0.006726242609233923	286.7013663355712
14.	0.006771408141048903	303.59982699608406
15.	0.006810642845453835	320.3936599655758
16.	0.006845315374927962	337.09659860289827
17.	0.00687405707699204	353.7225329329144
18.	0.006900289582844174	370.28232860440016
20.	0.0069402086134887275	403.2369603330233
22.5	0.006977846556667877	444.2038939365525
25.	0.007001797975054609	484.9922354255531
27.5	0.007020046674777834	525.658920738996
30.	0.007029171024639445	566.2469109758207
32.5	0.007034873743302953	606.7934809442871
35.	0.007037154830768356	647.3173194503745
37.5	0.007037154830768356	687.834589946193
40.	0.007033733199570252	728.3619872888555
45.	0.0070257493934413415	809.481663583762
50.	0.007012062868648923	890.7280083639254
55.	0.007000657431321907	972.120929936113
60.	0.0069858303627967884	1053.6643042637631
65.	0.006968722206806265	1135.387059019101
70.	0.006933365351092518	1217.4180481147748
80.	0.006869494902061233	1382.6966437806254
90.	0.006811327171693457	1549.444214168876
100.	0.006757721616256485	1717.5676522727879
110.	0.006712099866948424	1886.9306498479416
120.	0.006672180836303871	2057.374806584025
130.	0.0066391050680555275	2228.7547653980673
140.	0.006612872562203392	2400.901659482473
150.	0.006593483318747467	2573.6407028158205
160.	0.006578656250222346	2746.8296897731802
170.	0.0065718129878261375	2920.304034806118
180.	0.006569531900360735	3093.895370133232
200.	0.006579796793955049	3440.9369162801354
225.	0.006618575280866899	3873.157707073747
250.	0.006680164642432782	4302.090677446353
275.	0.006761143247454589	4726.456983603318
300.	0.006858089464734218	5145.262536478501
325.	0.0069675816630735635	5557.801078106745
350.	0.007087338755007223	5963.600166989389
375.	0.007215079653069794	6362.371953998336
400.	0.007350804357261274	6753.924696100926
450.	0.007634799746703951	7515.244003923484
500.	0.007933622204671748	8248.028739120018
550.	0.008241569012501157	8953.274621651679
600.	0.00855179690779597	9632.52670919061
650.	0.008863165346823484	10287.52182965273
700.	0.009174533785850997	10919.890756209705
800.	0.009790427401509816	12122.983874176407
900.	0.010391493948643516	13253.447871066928
1000.	0.010978873970984796	14321.014282543289