# E_R [keV]  \xi_T*d_E/dx_T [keV/Å]  x_T [Å]
0.0011	0.00023883106911306234	1.3085119106656218
0.0012	0.000251657817344951	1.4302178690436063
0.0013000000000000002	0.0002650811585178578	1.545700525740937
0.0014	0.0002780779357379366	1.6555468260587562
0.0015	0.0002907734335228014	1.7604308858766076
0.0016	0.00030311097554305524	1.8608921992879366
0.0017	0.00031515320405750514	1.9573919728952793
0.0018000000000000002	0.0003269329316779072	2.0503107251816326
0.002	0.0003496631227306959	2.2266791563249275
0.0022500000000000003	0.0003769274201352221	2.4319925501960786
0.00249999	0.0004031775095400176	2.6231995700726043
0.00274999	0.0004281150944745733	2.8026357191833187
0.00299999	0.00045242625682105994	2.9720354018973327
0.00324999	0.0004757530408148669	3.1327345901328236
0.00349999	0.0004984235725735539	3.285846887766999
0.00374999	0.000520437852097121	3.432237917044761
0.00399999	0.00054152741256211	3.5726863296250895
0.004499990000000001	0.0005826923254923575	3.8380786007696925
0.00499999	0.0006218884817172452	4.085745366964158
0.005499990000000001	0.0006598019631189442	4.3185017633619385
0.00599999	0.0006958063471093853	4.538560141644938
0.006499990000000001	0.0007307965231000956	4.7476700605728155
0.00699999	0.0007645338539146679	4.947162957571454
0.00799999	0.0008288167433093659	5.321641818767205
0.008999990000000001	0.0008898482011755153	5.668805646355448
0.00999999	0.000947717716454269	5.993493510494867
0.0109999	0.0010030218820866448	6.299318177848052
0.0119999	0.0010563871206607119	6.58902536715336
0.0129999	0.0011075151357059613	6.864735000552921
0.013999900000000001	0.001156734053339953	7.128226437258029
0.0149999	0.0012043719996802464	7.380910382069823
0.0159999	0.001250727271197351	7.623916958761868
0.016999900000000002	0.001295471741773707	7.858226384756085
0.0179999	0.0013389633671739248	8.084690141646796
0.0199999	0.0014230829718574738	8.516733113276377
0.0224999	0.001522117400066475	9.023162930145576
0.024999900000000002	0.0016160509586297719	9.498456033636765
0.0274999	0.0017055398997824836	9.947494424251563
0.0299999	0.0017908825199951194	10.374075644365812
0.0324999	0.001872764901149851	10.781182495175287
0.0349999	0.0019511870432466773	11.171222845193741
0.037499899999999996	0.002027043835697126	11.54613685153804
0.0399999	0.002100066811677739	11.90752314522507
0.044999899999999995	0.002239460752346613	12.594929197529911
0.0499999	0.0023709200068999466	13.241937841397322
0.0549999	0.002495160486866962	13.854943786018621
0.059999899999999995	0.0026133753781296936	14.43885721572076
0.0649999	0.0027262209329232635	14.997502076121965
0.0699999	0.002834323573835739	15.533949203458874
0.0799999	0.0030382390410757187	16.549802296046224
0.0899999	0.0032273590033784494	17.501939629834858
0.0999999	0.003405680633448753	18.401319687613082
0.11	0.003571533471051779	19.256354947101
0.12	0.00373094310489181	20.073310885333665
0.13	0.003880986229557856	20.857038064700028
0.13999899999999998	0.004024675639402061	21.611585212613992
0.149999	0.0041620709937185245	22.34029056353857
0.159999	0.004293202122154298	23.045847061267274
0.169999	0.0044180988543564325	23.730681423209973
0.179999	0.0045397739846770695	24.396676116969733
0.199999	0.004770357156380557	25.678099947996238
0.224999	0.005037034201015639	27.19872346167996
0.249999	0.005287603236243231	28.643182566396952
0.27499900000000005	0.005519081297358246	30.023176461787248
0.299999	0.0057353462384773	31.348334134542696
0.32499900000000004	0.0059417673960695545	32.62553304409793
0.349999	0.00613566010190043	33.86038482341805
0.374999	0.006320007320675017	35.0577544153919
0.39999900000000005	0.006495107348863823	36.22154386760408
0.44999900000000004	0.0068232334664237665	38.46092318853229
0.499999	0.007122723122814842	40.59959149642922
0.549999	0.007403420101563848	42.652880433537824
0.5999990000000001	0.007662043141495186	44.63265865106074
0.649999	0.007904558172019033	46.548779338660026
0.699999	0.008134544750781503	48.40846449157489
0.799999	0.008553651291846704	51.98239606601084
0.899999	0.008931294623511148	55.39377568412325
0.9999990000000001	0.009277318529301633	58.66965461104875
1.1	0.009591723009218161	61.83098016073724
1.2	0.00988375525384651	64.89392655130749
1.3	0.010153415263186681	67.87102393898631
1.4	0.010403984298414274	70.77284075806833
1.5	0.01063874362070489	73.60778702993944
1.6	0.010860676194763615	76.38253225860933
1.7	0.011069483724119939	79.10277149956575
1.8	0.011265762801714888	81.77370310987494
2.	0.01163266746044101	86.9839285317825
2.25	0.012038350660333302	93.28316028121618
2.5	0.01240197405788382	99.3845440677882
2.75	0.012730100175443763	105.31818474955305
3.	0.01302899323889382	111.10752513202928
3.25	0.013301636212939082	116.7712945846413
3.5	0.013551906951696167	122.32486664812126
3.75	0.013782490123399655	127.78082606100064
4.	0.013996666989225146	133.14950025577548
4.5	0.014382364325593332	143.65804965232957
5.	0.01472152741256211	153.90535978648396
5.5	0.015021315365423693	163.9328392980838
6.	0.015287694113588268	173.77330385049282
6.5	0.015527226179407026	183.45244017460166
7.	0.01574319282405557	192.9907331024995
8.	0.01611785319101492	211.7095403379825
9.	0.016431064485049413	230.03422676897793
10.	0.016699233012037042	248.03816211325866
11.	0.016925640033153406	265.7779558535197
12.	0.017123708889571404	283.29728392186973
13.	0.017296720842466647	300.6278642400667
14.	0.01744497418830964	317.7985681925761
15.	0.01757801441415667	334.83163243272963
16.	0.01769315685177316	351.74497589986487
17.	0.0177966657270398	368.55437124402965
18.	0.01788883933642709	385.27164471841326
20.	0.01804395350109179	418.4723818888383
22.5	0.01819310173634631	459.6234659462257
25.	0.018306454395139747	500.480502733099
27.5	0.018389977406882276	541.1202409518485
30.	0.018458585595099358	581.5930092917638
32.5	0.018506313030380802	621.9386591572608
35.	0.018542108606841887	662.1944299169443
37.5	0.0185689552891877	702.3825171556342
40.	0.018586853077418242	742.5224748937393
45.	0.018607733830353874	822.7145165917551
50.	0.01861071679505897	902.8571707286975
55.	0.018604750865648785	983.0083900771465
60.	0.01859281900682842	1063.1992470899777
65.	0.01857790418330297	1143.4496326438402
70.	0.01856597232448261	1223.7879974688879
80.	0.01919239491255159	1382.0392411088505
90.	0.019350492041921387	1536.584720951233
100.	0.0192520542066534	1691.0053720230258
110.	0.01902833185377162	1846.7946747450596
120.	0.018750916136198212	2004.6912263908862
130.	0.018464551524509536	2165.0011160716776
140.	0.01818415284223104	2327.8000430859497
150.	0.017921651948183084	2493.0546576793713
160.	0.017685997736480944	2660.624446069246
170.	0.017477190207124616	2830.3120987099996
180.	0.0172952293601141	3001.9055551604033
200.	0.017002898819015243	3349.951918343693
225.	0.016761278677902922	3791.9732376084153
250.	0.016635994160289127	4238.802874818335
275.	0.01660914747794331	4687.632664009553
300.	0.016659857877929847	5136.100388697678
325.	0.01677321053672328	5582.33811141445
350.	0.016937273595503254	6024.888025612399
375.	0.01714906408956467	6462.54001314689
400.	0.017393667195382084	6894.38987500922
450.	0.01796341345405435	7738.511210675325
500.	0.01861071679505897	8554.423616487518
550.	0.019305747571345032	9341.35070018015
600.	0.020021659100566726	10099.992002160403
650.	0.020755468418018962	10831.626706838857
700.	0.021489277735471195	11537.804402210793
800.	0.022933032652734945	12881.082280013274
900.	0.02432607717001216	14143.596203782348
1000.	0.025662445357892652	15337.103085900924