# E_R [keV]  \xi_T*d_E/dx_T [keV/Å]  x_T [Å]
0.0011	0.000015502511832987636	2.526971791047564
0.0012	0.000015945266257999102	2.8509636482225034
0.0013000000000000002	0.000016501508311490518	3.16475664962248
0.0014	0.000017032304708372075	3.468265993834616
0.0015	0.000017537655448643784	3.7626766323973664
0.0016	0.00001801857835857003	4.048922898078759
0.0017	0.00001848016256947279	4.327776036593992
0.0018000000000000002	0.000018917318950030085	4.599928277273785
0.002	0.000019751936486833303	5.126367152238348
0.0022500000000000003	0.000020705639696570647	5.755200326676494
0.00249999	0.00002158300593647842	6.356816951197194
0.00274999	0.00002240235607931573	6.935256169380793
0.00299999	0.00002316063664628939	7.493670569838313
0.00324999	0.00002387311503136531	8.034642329199082
0.00349999	0.00002454996949718743	8.560089016166902
0.00374999	0.000025181021781111825	9.071716996937509
0.00399999	0.000025781539277104376	9.570993302425238
0.004499990000000001	0.000026901148167937974	10.536818386124889
0.00499999	0.000027924063563654115	11.464921325550604
0.005499990000000001	0.00002886555285821872	12.360946987027734
0.00599999	0.00002974088344559771	13.229217811503968
0.006499990000000001	0.000030560233588435025	14.073092260852818
0.00699999	0.00003132360328673064	14.895388266129528
0.00799999	0.00003271802526895066	16.484302348236035
0.008999990000000001	0.00003398012983679944	18.010018022452645
0.00999999	0.00003512009525292091	19.48274306480959
0.0109999	0.00003616845630524691	20.91018434209181
0.0119999	0.000037135391256421375	22.29852692440251
0.0129999	0.00003803107836908824	23.652496143148287
0.013999900000000001	0.00003887078503721344	24.975927326214467
0.0149999	0.000039654511260796946	26.272013621509817
0.0159999	0.00004039752443380469	27.5433914573224
0.016999900000000002	0.000041094735424914695	28.79230961721134
0.0179999	0.00004176141162809288	30.020681741525017
0.0199999	0.000042987892276687866	32.42209818914201
0.0224999	0.000044377225127585904	35.3340917025089
0.024999900000000002	0.00004563424056411271	38.160557919222434
0.0274999	0.00004677420598023419	40.913799289905945
0.0299999	0.00004782765616388215	43.60328738439253
0.0324999	0.000048804769377700556	46.2362840566506
0.0349999	0.00004971063475301137	48.818990318699996
0.037499899999999996	0.0000505605196837805	51.356510314896205
0.0399999	0.00005135951330132993	53.85299362877572
0.044999899999999995	0.000052825183122057526	58.73677974665098
0.0499999	0.000054153446397091934	63.49324773599663
0.0549999	0.00005536974878304296	68.13932531086589
0.059999899999999995	0.00005648935767387656	72.68848128413339
0.0649999	0.00005753262959488058	77.15141388182916
0.0699999	0.00005850465367737701	81.53688826923376
0.0799999	0.000060296027902710754	90.10272535234006
0.0899999	0.00006190928253177552	98.43026778593678
0.0999999	0.00006339021974646904	106.55247316556756
0.11	0.0000647591960720792	114.49432584404902
0.12	0.00006604165716521587	122.2752887065644
0.13	0.00006725287041984492	129.9107870908578
0.13999899999999998	0.00006840301409861034	137.41267839952164
0.149999	0.00006949717733283407	144.79329230138887
0.159999	0.00007055062751648205	152.0607612215289
0.169999	0.00007155827551823227	159.2228369035995
0.179999	0.00007253029960072872	166.28657186933677
0.199999	0.00007439292166457004	180.14108684552147
0.224999	0.00007657615900169554	196.99443539970957
0.249999	0.00007863216805577177	213.3879853840801
0.27499900000000005	0.00008059657274605252	229.3679165834938
0.299999	0.00008247955133518174	244.9704921356194
0.32499900000000004	0.00008423530164126169	260.23322068264054
0.349999	0.00008601140847262953	275.1793252168659
0.374999	0.00008766028702094809	289.83024083323005
0.39999900000000005	0.0000892786307813348	304.2112596664748
0.44999900000000004	0.00009241862480699084	332.2194999395065
0.499999	0.00009542121228695365	359.31131138321865
0.549999	0.00009827621495857929	385.5840079550943
0.5999990000000001	0.00010102943500376554	411.11819817628054
0.649999	0.00010372158547308812	435.97309949420213
0.699999	0.00010630177505332734	460.2036243455591
0.799999	0.00011120769764770724	506.99605114926317
0.899999	0.00011592023325185228	551.8086124795882
0.9999990000000001	0.00012041393620915252	594.8750227200619
1.1	0.00012472951957018382	636.3941026462264
1.2	0.00012885171594098022	676.5318851217543
1.3	0.00013287721881665918	715.4203675781132
1.4	0.00013674495862135702	753.1698442944106
1.5	0.00014049564840564954	789.8828586886779
1.6	0.00014418526861407842	825.6361224067673
1.7	0.00014774766053945803	860.500949036574
1.8	0.00015123880462633005	894.5435166252691
2.	0.00015793101231472174	960.3808135693452
2.25	0.00016491838961978772	1039.1676840228051
2.5	0.00017148845815645212	1114.8048107244094
2.75	0.00017783460491494976	1187.6474519505114
3.	0.00018393647336999283	1257.983295906761
3.25	0.000189839865703479	1326.060698533698
3.5	0.00019558040583466215	1392.0814772186438
3.75	0.0002011580937635422	1456.2175936913316
4.	0.0002065118599142556	1518.6340292765587
4.5	0.00021694457912429583	1638.8178422026112
5.	0.00022680222649495337	1753.5013496400566
5.5	0.00023626801075381918	1863.4017336882102
6.	0.00024538264495146896	1969.0606137922564
6.5	0.00025408505951203915	2070.9504258028464
7.	0.00026251775011254487	2169.4618330507706
8.	0.0002785078007261773	2357.583716726777
9.	0.0002935767185705331	2535.493022801945
10.	0.00030774486017089993	2704.7513794582383
11.	0.0003212005233861909	2866.577160741207
12.	0.0003339910371377002	3021.919236093995
13.	0.00034615355208407835	3171.56244252264
14.	0.00035778476172044284	3316.14759969159
15.	0.00036888008582860375	3456.2110300857253
16.	0.0003795377446430751	3592.2039698963295
17.	0.00038975366685879936	3724.5060555886066
18.	0.00039952683464951214	3853.457464877896
20.	0.00041793880285927057	4102.449282947876
22.5	0.0004389849054412811	4399.331237731864
25.	0.00045809204898962074	4682.92779670288
27.5	0.0004754526026682599	4955.448085143469
30.	0.0004912116067198749	5218.634826461659
32.5	0.0005055675372660224	5473.868044892696
35.	0.000518363649061986	5722.344741359192
37.5	0.0005304620409537072	5964.923799261863
40.	0.000541045398450878	6202.355554593249
45.	0.0005586797473946392	6664.876161261968
50.	0.0005732906434200174	7114.265713241788
55.	0.0005843620486109651	7553.694981231484
60.	0.0005929067001005542	7985.830777107402
65.	0.0005989210354968593	8412.700724437183
70.	0.0006029114233664166	8836.034784263078
80.	0.0006053201092211055	9677.693290380488
90.	0.0006026661272366977	10519.74624790594
100.	0.0005959596699806046	11368.527799844593
110.	0.0005867239144574918	12228.907542379517
120.	0.0005759721067135639	13104.14403147635
130.	0.000563702211096292	13997.131944441871
140.	0.000550930527130674	14910.252770627676
150.	0.0005376560369904453	15845.261483245966
160.	0.0005243856181552741	16803.71790908605
170.	0.0005116286926704897	17786.256568280347
180.	0.0004989257119777182	18793.537775669454
200.	0.00047480068494591546	20885.42549126102
225.	0.00044731581341534744	23647.21943894551
250.	0.000422842995149001	26573.861939286
275.	0.00040112573792824906	29664.386384378457
300.	0.00038185696356912366	32916.46791560214
325.	0.0003647300010181629	36326.82486756663
350.	0.00034938784771313053	39892.002684108294
375.	0.00033562617503144946	43608.434671910705
400.	0.0003231900683852022	47472.4318714186
450.	0.0003015805480745363	55629.9341872193
500.	0.0002833865473592979	64340.12668063497
550.	0.00026784316980179483	73581.52096460079
600.	0.00025438964402165913	83334.49464179625
650.	0.0002426180761434348	93581.20548665023
700.	0.00023222266026598455	104305.1962947768
800.	0.00021459172104020905	127129.6289468463
900.	0.00020032429048775051	151699.1185317394
1000.	0.0001885537913271038	177903.68507002183