# E_R [keV]  \xi_T*d_E/dx_T [keV/Å]  x_T [Å]
0.0011	0.00018777925417626067	0.8972551640343742
0.0012	0.00019841591134129552	0.9727510514505204
0.0013000000000000002	0.00020933087008421006	1.0442372951206296
0.0014	0.00021993110034114553	1.112130331418595
0.0015	0.00023021805918842583	1.1768735858051207
0.0016	0.00024035931040330838	1.2388068338679832
0.0017	0.00025032571245931363	1.2981996320979199
0.0018000000000000002	0.0002599861284872837	1.3553067561141687
0.002	0.0002786804177239134	1.4635274692263933
0.0022500000000000003	0.00030119224692936393	1.5891942135087167
0.00249999	0.0003227715472874689	1.7059689799990587
0.00274999	0.00034356402643062606	1.8153183715677024
0.00299999	0.000363598825885315	1.9183518186712827
0.00324999	0.00038300708252069377	2.015941753682693
0.00349999	0.00040193450396915987	2.1087632982061466
0.00374999	0.0004202499533615555	2.1973797685530676
0.00399999	0.0004382594167259159	2.282246719331055
0.004499990000000001	0.00047273384255122077	2.442214223592659
0.00499999	0.0005058094751055071	2.591138436044596
0.005499990000000001	0.000537515455915255	2.730812583397208
0.00599999	0.0005682743371144173	2.8625929599039117
0.006499990000000001	0.0005978092742014388	2.9875565515329825
0.00699999	0.0006265719608367522	3.1065704958266553
0.00799999	0.0006815037382506995	3.3293944401153324
0.008999990000000001	0.0007338127782814874	3.535327884028117
0.00999999	0.0007836739300879934	3.7273882795251043
0.0109999	0.0008315388873306502	3.9078069619316245
0.0119999	0.0008774222207726977	4.078341666259875
0.0129999	0.0009219067609437272	4.240309471271607
0.013999900000000001	0.0009647302341054221	4.394780119050809
0.0149999	0.0010064754707873743	4.542622979752257
0.0159999	0.0010468510557247873	4.684550742888735
0.016999900000000002	0.001086162974945697	4.82117691109886
0.0179999	0.0011245423653192612	4.95300083736014
0.0199999	0.0011984307057081544	5.20391424956394
0.0224999	0.0012862486957542706	5.497155012009813
0.024999900000000002	0.0013696517445387357	5.771484999999691
0.0274999	0.0014493975317500178	6.029935618071761
0.0299999	0.0015259523218117894	6.274805970965856
0.0324999	0.0015996221007520855	6.507905360049246
0.0349999	0.0016708439914680999	6.730672369637044
0.037499899999999996	0.001739049734193481	6.944331323505491
0.0399999	0.001805725546778686	7.14986173308851
0.044999899999999995	0.0019315440873541325	7.539749060500353
0.0499999	0.0020527291252193307	7.905476054505691
0.0549999	0.002166410220016046	8.250826369447816
0.059999899999999995	0.0022755160951554725	8.578873184958677
0.0649999	0.0023815329684880662	8.891752003126479
0.0699999	0.0024815758288923534	9.191362466479793
0.0799999	0.002672525681149589	9.756803692348457
0.0899999	0.002851367229154572	10.284361757768352
0.0999999	0.0030196449738107197	10.780722300713537
0.11	0.0031788597037317274	11.250863225820822
0.12	0.0033304976367680536	11.698552734106233
0.13	0.003476074132296633	12.126692645358716
0.13999899999999998	0.0036155891903174673	12.5375726533169
0.149999	0.0037490573815937953	12.93325758389576
0.159999	0.0038766972675742133	13.315401657824335
0.169999	0.004001131585641881	13.68532046565399
0.179999	0.00412104896710522	14.044104065574016
0.199999	0.004348789996542884	14.732189385067835
0.224999	0.0046161635019927325	15.544799412911868
0.249999	0.004865469261025263	16.313129761325865
0.27499900000000005	0.005101078502612405	17.0440837816144
0.299999	0.005323282642018954	17.74292756847028
0.32499900000000004	0.005533393047936493	18.413952614902385
0.349999	0.005734323873012973	19.060498347513583
0.374999	0.005924763748556817	19.685341069389377
0.39999900000000005	0.006107772534848376	20.290801512497733
0.44999900000000004	0.006453973869425401	21.45061585695557
0.499999	0.006773073584376447	22.5520943650929
0.549999	0.007072648476586195	23.604376093514727
0.5999990000000001	0.00735255283842225	24.61439042733579
0.649999	0.007617303606488939	25.58767658859433
0.699999	0.007868503564742639	26.52853473365325
0.799999	0.008331853835767447	28.326975645235628
0.899999	0.008755863046044865	30.032117936402663
0.9999990000000001	0.009145193839811619	31.659816349826546
1.1	0.00950582022999602	33.222110657876556
1.2	0.00984080207687842	34.72824175528012
1.3	0.01015451060943075	36.18554025928955
1.4	0.010450151395565759	37.59974777357938
1.5	0.010727724435283451	38.97569088000109
1.6	0.010991600957555752	40.31734921655419
1.7	0.011241926670015065	41.627972635853745
1.8	0.011478555865028994	42.910515066670925
2.	0.011923109851474493	45.40083324792904
2.25	0.012425364060349494	48.39228925778215
2.5	0.012880554703960026	51.270703201134225
2.75	0.013296258579190774	54.053421859142226
3.	0.01367713833027846	56.754032900438546
3.25	0.014030625046475374	59.38311860348141
3.5	0.014358175804105488	61.94916293704566
3.75	0.014664307539773132	64.45920378574132
4.	0.01494931166874311	66.91915504137268
4.5	0.015468759378241046	71.70819330580284
5.	0.015937500831664567	76.34679420023734
5.5	0.0163603443808828	80.85735852961196
6.	0.01673743573352815	85.25903791513929
6.5	0.017083637068105173	89.56672649127837
7.	0.01739923979987867	93.7917647465558
8.	0.017953657341152066	102.03211639647019
9.	0.018445420600494433	110.03616550011571
10.	0.018860395937563192	117.8461087446509
11.	0.019243169887872048	125.4927835801207
12.	0.019564746632573852	133.0008661214146
13.	0.019869421291917523	140.38994870001096
14.	0.020128052339423507	147.6749384866611
15.	0.020369927009203752	154.87014230543144
16.	0.02058266015250445	161.98544941977912
17.	0.020777908379917418	169.03075280461167
18.	0.020957128767766637	176.01285764548453
20.	0.021267486024773817	189.81271299768852
22.5	0.02159532819766873	206.80568833674545
25.	0.021859059012308633	223.5682920730382
27.5	0.02208781999517308	240.14357718554828
30.	0.022269954535670253	256.56533387031413
32.5	0.022418576320715946	272.86593247383894
35.	0.02253368535031016	289.0714095276164
37.5	0.022632766540340618	305.20090114916604
40.	0.02272747650139915	321.2613439261994
45.	0.02283821430202143	353.23044238666006
50.	0.022925638881460073	385.0652802276109
55.	0.022963522865883487	416.8132508723771
60.	0.022979550705447233	448.52564195859236
65.	0.022975179476475305	480.23099367833896
70.	0.02296643701853144	511.9457096156781
80.	0.022893583202332573	575.478704945257
90.	0.02280615862289393	639.241415420898
100.	0.022692506669623694	703.2864661382794
110.	0.022568655182085617	767.7021651253192
120.	0.02270999158551142	832.0881920436078
130.	0.022800330317598018	896.1033008278362
140.	0.022790130783330177	960.004979744906
150.	0.022721648196103242	1024.0229537564317
160.	0.022602167937537096	1088.311114494476
170.	0.022463745686759243	1152.9724134718874
180.	0.022318038054361507	1218.0451683823014
200.	0.021997481263086486	1349.5442207480535
225.	0.021612813113556454	1516.615861131654
250.	0.02124417280359018	1686.6394279427295
275.	0.020939643851878905	1859.3828335895937
300.	0.020672998884591048	2034.4905157639723
325.	0.02045152328334648	2211.6762425927077
350.	0.020267931666525334	2390.6222192596783
375.	0.020123681110451576	2571.017689097336
400.	0.020010029157181343	2752.5681576609654
450.	0.01986577860110758	3118.130967641001
500.	0.019813323853444392	3485.4698792587787
550.	0.019829351693008146	3853.1192164665417
600.	0.019902205509207016	4219.927215288325
650.	0.020018771615125205	4584.9794707512565
700.	0.02017176462914283	4947.572941314895
800.	0.02055934693132081	5663.344225891992
900.	0.021029982583965507	6364.269903421509
1000.	0.021558901289569294	7048.680022512492