# E_R [keV]  \xi_T*d_E/dx_T [keV/Å]  x_T [Å]
0.0011	0.00030851259968559815	0.9643959320045682
0.0012	0.00032525422270346426	1.0444798530390682
0.0013000000000000002	0.00034234082461988036	1.1204870897254322
0.0014	0.000358887128702538	1.1928389174914331
0.0015	0.00037489820817053363	1.2619811387985953
0.0016	0.0003906302605882315	1.3282554278905216
0.0017	0.00040582962500081534	1.3919548380660554
0.0018000000000000002	0.00042074742575355336	1.4533339483599912
0.002	0.00044953794412518674	1.5699299061427698
0.0022500000000000003	0.0004838836374072939	1.705826488549035
0.00249999	0.0005166312666740593	1.8326008319025906
0.00274999	0.000548034492880299	1.9517396995601253
0.00299999	0.0005783469769808293	2.0643469645604178
0.00324999	0.0006073657902117973	2.171317895887208
0.00349999	0.0006355475222918718	2.2733670041228224
0.00374999	0.0006629175393165347	2.3710486899956056
0.00399999	0.0006895012073812677	2.4648324529563657
0.004499990000000001	0.000740512425394796	2.6422357044459863
0.00499999	0.000789113864337571	2.8080801959741932
0.005499990000000001	0.0008353308903050743	2.9642426182727557
0.00599999	0.0008799244861617538	3.1121362240860377
0.006499990000000001	0.0009226663570482756	3.252862005248346
0.00699999	0.0009640638248742719	3.38731209791977
0.00799999	0.0010426479886763162	3.6401447975210104
0.008999990000000001	0.0011166662552916698	3.875107690334298
0.00999999	0.0011869810719667073	4.095344669485222
0.0109999	0.0012538460996562454	4.303182929330586
0.0119999	0.0013180476873202137	4.500444377085593
0.0129999	0.0013793321740037962	4.688526920965561
0.013999900000000001	0.001438485908666923	4.868571506706706
0.0149999	0.0014955342574050762	5.041483903360482
0.0159999	0.0015507055150775894	5.208025615528954
0.016999900000000002	0.0016040504138754264	5.368838065693481
0.0179999	0.0016557718825624403	5.524467589654513
0.0199999	0.001755029414182001	5.821956674756473
0.0224999	0.001872043212638692	6.171636650307645
0.024999900000000002	0.001982208165315348	6.500702466062089
0.0274999	0.002086538916031231	6.812420227278937
0.0299999	0.0021858471798417555	7.109279606331651
0.0324999	0.0022806656447520337	7.393236121630849
0.0349999	0.0023715269987671793	7.665858540883084
0.037499899999999996	0.0024586849028420095	7.9284332418897066
0.0399999	0.0025426466788861565	8.182024974255508
0.044999899999999995	0.00270240234822937	8.66562769615591
0.0499999	0.0028513774269928963	9.1223444500637
0.0549999	0.0029923875517751963	9.556401692676179
0.059999899999999995	0.0031255088208627137	9.970999240563875
0.0649999	0.003250741234255448	10.368803448988674
0.0699999	0.003370697499788007	10.751887898891372
0.0799999	0.0035972928307252765	11.479905998898303
0.0899999	0.003805497742438375	12.165134632469613
0.0999999	0.003997899576666427	12.815212318775142
0.11	0.004179673016887682	13.435568847535299
0.12	0.004350894161388587	14.03023706910819
0.13	0.004511613742360102	14.602636680180499
0.13999899999999998	0.00466439373544587	15.155431731326173
0.149999	0.004809284872836857	15.690917915770656
0.159999	0.004948849130176704	16.210791265153166
0.169999	0.00508054989791725	16.716599585500543
0.179999	0.005206898419511176	17.209731179154183
0.199999	0.005446608021812442	18.16206791731966
0.224999	0.005721576496833152	19.29752375059583
0.249999	0.005975491112604121	20.381681324510552
0.27499900000000005	0.006210888478673511	21.422303251487335
0.299999	0.006427768595041322	22.425705872178355
0.32499900000000004	0.00663171200271351	23.39681255710902
0.349999	0.0068247479893286025	24.339261430693576
0.374999	0.007004593606293256	25.256308206133802
0.39999900000000005	0.007176575733658605	26.150623799149255
0.44999900000000004	0.007493905588133615	27.879302476383508
0.499999	0.007782064432804765	29.539541914142283
0.549999	0.008046379147723198	31.14187404434281
0.5999990000000001	0.008289386342437071	32.69446815875295
0.649999	0.008513876287449366	34.20391211977065
0.699999	0.008724922201856406	35.675245039630965
0.799999	0.009104906312171004	38.519702816851876
0.899999	0.009444304669715017	41.25405979480791
0.9999990000000001	0.00974666852785587	43.8970891191319
1.1	0.010022144324786212	46.462976007778124
1.2	0.01027098572146086	48.9626012993831
1.3	0.010500802546524293	51.404690961639474
1.4	0.010711848460931333	53.79604407127278
1.5	0.010906913735184955	56.142513472848904
1.6	0.011088281317878505	58.448843235967516
1.7	0.011256458530921614	60.7191324077248
1.8	0.011416011271500975	62.956627528642834
2.	0.011703409133307675	67.3441016130348
2.25	0.012018709700144155	72.68923334610777
2.5	0.01229342451421005	77.90489632935325
2.75	0.012535163404149842	83.012266436056
3.	0.012749506910969492	88.02767056896471
3.25	0.012941781914720136	92.9638120602421
3.5	0.013114778685904752	97.83082935826079
3.75	0.013271033834071503	102.63718369154977
4.	0.013413083968768549	107.38986381007159
4.5	0.013661164382578745	116.75658474708166
5.	0.013867390738844281	125.96917919616075
5.5	0.014042163136712608	135.05642755507247
6.	0.014191315778144508	144.03969005171584
6.5	0.014319921882236297	152.93557802719718
7.	0.014428742431852428	161.7581197019413
8.	0.014604529473540021	179.22710729972295
9.	0.01473846245768295	196.51276422718507
10.	0.014836121925287169	213.66396505487495
11.	0.01491120556791275	230.71626221614474
12.	0.01496472802937896	247.6954221951603
13.	0.0150015088678273	264.623936648069
14.	0.015027889607128182	281.51711700982713
15.	0.015043362925371968	298.3868071905153
16.	0.01504894346637792	315.244966346654
17.	0.015049450788287552	332.0999286977882
18.	0.015044631230146047	348.9573566232576
20.	0.015024338353760757	382.6992532611613
22.5	0.014978679381893848	424.96791752111665
25.	0.014922873971834295	467.38188427866777
27.5	0.014859458733130253	509.9665502219513
30.	0.014793506884878058	552.7382205874231
32.5	0.01473009164617402	595.6969959102464
35.	0.014661603188373656	638.848572018347
37.5	0.014595651340121455	682.1996805526255
40.	0.01453477271096558	725.7394493244861
45.	0.014415552062201986	813.3885342067766
50.	0.014435844938587279	901.3747746802977
55.	0.014577895073284325	988.8135721815382
60.	0.014638773702440202	1075.601675096796
65.	0.014648920140632848	1162.1911370780647
70.	0.014626090654699393	1248.8257792587874
80.	0.01453477271096558	1422.7575540309313
90.	0.014428235109942794	1597.9152604709266
100.	0.014326770728016332	1774.3619363653236
110.	0.01425320905111965	1951.8981313957004
120.	0.01420247686015642	2130.2083877118484
130.	0.014177110764674802	2308.9993627246804
140.	0.014179647374222965	2487.932920036449
150.	0.01420501346970458	2666.6892712071476
160.	0.014255745660667809	2844.9664145623747
170.	0.014326770728016332	3022.4815733672895
180.	0.01441808867175015	3198.9926661048266
200.	0.014648920140632848	3548.182374139772
225.	0.01501672852511627	3975.9272889110025
250.	0.015453025367400055	4392.339104646348
275.	0.015937517791098903	4796.506882387273
300.	0.01646259596756834	5188.063431965802
325.	0.017018113458615716	5566.962647788305
350.	0.017593923826048383	5933.4668663728835
375.	0.018190027069866343	6287.95668604643
400.	0.018793740142328794	6630.935909116712
450.	0.02003160560183162	7284.584429302133
500.	0.02128722732817158	7898.709955575475
550.	0.0225453856640597	8477.572691099904
600.	0.023801007390399656	9025.012103367284
650.	0.02504901928809513	9544.370531278397
700.	0.0262828261723209	10038.602932709691
800.	0.028712644458504834	10961.515758837764
900.	0.03106814008492763	11810.44902361223
1000.	0.03337696209566426	12597.934646560967