# E_R [keV]  \xi_T*d_E/dx_T [keV/Å]  x_T [Å]
0.0011	0.0002430075110725538	0.7556410694121627
0.0012	0.0002556479319274397	0.8291655702994651
0.0013000000000000002	0.0002690577697039274	0.8990124144737017
0.0014	0.0002820645795690999	0.9654969949369234
0.0015	0.0002946500420724429	1.0290300646493684
0.0016	0.000306850796114985	1.0899456289305451
0.0017	0.00031881339730084076	1.1485094877812134
0.0018000000000000002	0.0003305928039815534	1.2049315752438137
0.002	0.00035330892261931936	1.3120832721291016
0.0022500000000000003	0.00038022019542486646	1.4369724841387554
0.00249999	0.00040608725955109683	1.5534749103286307
0.00274999	0.0004309467538990392	1.6629138833251154
0.00299999	0.00045461548396355034	1.7663546783817958
0.00324999	0.00047764303326005983	1.8646153408581618
0.00349999	0.0004999011656349677	1.9583216587849583
0.00374999	0.0005215181172418741	2.0480025158951514
0.00399999	0.000542548846432322	2.1340882943813453
0.004499990000000001	0.000582998193167957	2.296866716824333
0.00499999	0.0006212675252923871	2.449001251665106
0.005499990000000001	0.0006581079402766996	2.5922032271672326
0.00599999	0.0006933545630662657	2.727763314177463
0.006499990000000001	0.0007273921021218861	2.8567122524972683
0.00699999	0.0007602388768940754	2.9798616592719442
0.00799999	0.0008227631614994748	3.211339041329352
0.008999990000000001	0.0008818800283092096	3.4262941354773457
0.00999999	0.0009380291441356233	3.6276277357083497
0.0109999	0.0009913937034838594	3.8175154989146476
0.0119999	0.0010427614427260335	3.997641595490505
0.0129999	0.001091967486807517	4.169278048073132
0.013999900000000001	0.0011393782247385964	4.333481883777133
0.0149999	0.0011850302954203003	4.491111113941756
0.0159999	0.0012292900878629154	4.642871070314754
0.016999900000000002	0.0012723407965715852	4.789332990065044
0.0179999	0.00131401754649168	4.930995728817344
0.0199999	0.0013940369063382624	5.201601224007816
0.0224999	0.0014884736737396207	5.519377505834291
0.024999900000000002	0.0015775978004918237	5.818126298734389
0.0274999	0.0016621787035164736	6.100856056123194
0.0299999	0.0017428392441310573	6.369863835965259
0.0324999	0.0018199458113458615	6.6269582899725865
0.0349999	0.001893919752522716	6.87359414795018
0.037499899999999996	0.0019651274566719066	7.110953837374524
0.0399999	0.002034338340715036	7.339977022699472
0.044999899999999995	0.0021631240778307577	7.776379588688954
0.0499999	0.0022859010351777807	8.188155556979854
0.0549999	0.0024027791294591897	8.578857462148452
0.059999899999999995	0.0025117798600194385	8.951603204129
0.0649999	0.002616933505971678	9.308790830104243
0.0699999	0.002716224927759332	9.652276404602688
0.0799999	0.0029030833230054725	10.304247078672532
0.0899999	0.003076202130365867	10.91698029034966
0.0999999	0.003239428434448525	11.497075991924016
0.11	0.0033911134847071558	12.04961950900292
0.12	0.003534737976739484	12.578611637663533
0.13	0.0036706682995557936	13.087084108152553
0.13999899999999998	0.0038007363982075185	13.577397895573286
0.149999	0.003922927133138082	14.05174940662737
0.159999	0.004041270783460637	14.511780756619277
0.169999	0.0041535690151134645	14.958861804167693
0.179999	0.004262203356663427	15.394213148765987
0.199999	0.004467381202423895	16.233516858073205
0.224999	0.004705350864605009	17.23195801881547
0.249999	0.004923718714735791	18.183089057006683
0.27499900000000005	0.005126515031929396	19.094399305061224
0.299999	0.005317403706288688	19.971356663700092
0.32499900000000004	0.005494552792762235	20.8184772539525
0.349999	0.005664007710019764	21.639301255029388
0.374999	0.005823386929494414	22.436621477327776
0.39999900000000005	0.005975071979753045	23.212931177145286
0.44999900000000004	0.0062568251286634	24.710328801666428
0.499999	0.006514946186410275	26.14447103488897
0.549999	0.006751450292550243	27.52518273601843
0.5999990000000001	0.006972016476742744	28.85994042858841
0.649999	0.0071768279334929255	30.154586437146133
0.699999	0.007369731747408794	31.41385565901906
0.799999	0.007720182835747879	33.84116779668853
0.899999	0.008032895856027449	36.166491080429054
0.9999990000000001	0.00831776331152524	38.40692379165551
1.1	0.008576617147292687	40.575307140085506
1.2	0.008813670836948085	42.68189624273509
1.3	0.009032771465099442	44.73468143616906
1.4	0.009235750976798188	46.740081339265146
1.5	0.009426639651157483	48.70316979855538
1.6	0.009603605543125884	50.62831982386403
1.7	0.009770312542806265	52.519346754459725
1.8	0.009926943844703764	54.37934101732069
2.	0.01021602477381985	58.01662633008682
2.25	0.010535699185294867	62.4294818167845
2.5	0.010820566640792657	66.71764940872032
2.75	0.011074657419426379	70.90039159931831
3.	0.011304200134370902	74.99286901946667
3.25	0.011512858675729093	79.00682328096963
3.5	0.011703014572067813	82.95187139984816
3.75	0.011876499768438494	86.83615057341795
4.	0.012037344543954288	90.6661860344485
4.5	0.012324959917029229	98.1839377893476
5.	0.01257447083303437	105.5398473217062
5.5	0.012792472294154868	112.760450089084
6.	0.012984826524555305	119.86630320828289
6.5	0.013155197414338548	126.87374252700616
7.	0.0133090807986589	133.7954632019001
8.	0.013572880886065218	147.42086826080282
9.	0.01378905040213428	160.80825122791194
10.	0.01397041296222612	174.0046778756244
11.	0.014124296346546472	187.04403455445788
12.	0.014254364445198196	199.9532499894691
13.	0.014366113093335594	212.75372459863937
14.	0.01446320618106153	225.4616658182194
15.	0.014547475653427438	238.09028928734764
16.	0.014620753455484746	250.65082858490234
17.	0.01468487153228489	263.1526716817544
18.	0.01474349377393074	275.60243528392743
20.	0.01483692297155381	300.3698089374862
22.5	0.01493035216917688	331.1367346397751
25.	0.014999966081131322	361.7370130243297
27.5	0.015054924432674307	392.21153471913556
30.	0.015098891113908693	422.5865353500794
32.5	0.015133698069885914	452.8828464910139
35.	0.01516300919070884	483.1153437602371
37.5	0.015186824476377463	513.2950701763681
40.	0.015206975871943224	543.4314416410739
45.	0.01524361477297188	603.5912550282509
50.	0.015276589783897673	663.6140870555413
55.	0.015305900904720593	723.5098874722207
60.	0.015302237014617725	783.3599635011809
65.	0.015322388410183489	843.1858789972582
70.	0.015359027311212144	902.897946423875
80.	0.015434137058320885	1021.8825325230216
90.	0.015507414860378195	1140.2913436040385
100.	0.015567869047075475	1258.1858986803693
110.	0.015611835728309861	1375.6850096891312
120.	0.015641146849132783	1492.909749218066
130.	0.01565763435459568	1609.9646587926654
140.	0.015664962134801407	1726.9339856708416
150.	0.015670457969955708	1843.8582929843365
160.	0.015675953805110006	1960.742170051297
170.	0.015681449640264307	2077.586782485869
180.	0.015692441310572902	2194.3714145443187
200.	0.015727248266550125	2427.6121958676
225.	0.0158096857938646	2718.1280736946824
250.	0.01594158583756776	3006.688387388878
275.	0.016122948397659594	3292.4261369288515
300.	0.016348277638985824	3574.579138378098
325.	0.016613909671443574	3852.5276430960357
350.	0.016919844495032844	4125.730666586123
375.	0.017253258494393603	4393.814128869795
400.	0.017614151669525853	4656.557924359124
450.	0.018407383876796232	5165.4046688875505
500.	0.01926473416086676	5651.89569979726
550.	0.020169715016274535	6116.60381051072
600.	0.02110034310240237	6560.608923220221
650.	0.022047458693993098	6985.28154355167
700.	0.023014725681149584	7391.896657089718
800.	0.02493094020494824	8156.405419047103
900.	0.0268141797178211	8864.676700350132
1000.	0.02863696504399669	9525.509576886145