# E_R [keV]  \xi_T*d_E/dx_T [keV/Å]  x_T [Å]
0.0011	5.263256421419243e-6	3.4272238652036573
0.0012	5.39490639965172e-6	3.942754677771426
0.0013000000000000002	5.592107096212451e-6	4.442280446013518
0.0014	5.7786112320417936e-6	4.924673688083555
0.0015	5.957161515019591e-6	5.39206771621939
0.0016	6.128032215933827e-6	5.845946309535402
0.0017	6.291497605572485e-6	6.287605340889529
0.0018000000000000002	6.447831954723553e-6	6.718181424142882
0.002	6.747061384414454e-6	7.549636491454991
0.0022500000000000003	7.089351327818894e-6	8.540600305763387
0.00249999	7.407779712668698e-6	9.486424483126079
0.00274999	7.706186329995646e-6	10.393695178959051
0.00299999	7.986765346103614e-6	11.267478866841266
0.00324999	8.247322594688724e-6	12.112154230153209
0.00349999	8.496909011754462e-6	12.931115122633134
0.00374999	8.732781889420985e-6	13.726994674493723
0.00399999	8.957683935568133e-6	14.502155117818688
0.004499990000000001	9.380060949063997e-6	15.997590151044538
0.00499999	9.766782760121899e-6	17.42985112724625
0.005499990000000001	0.000010126077492381367	18.80845571155445
0.00599999	0.000010463430561602088	20.140443152045936
0.006499990000000001	0.00001078158467566391	21.43133413649457
0.00699999	0.000011080539834566826	22.685789558406807
0.00799999	0.000011631824118415325	25.100419927026735
0.008999990000000001	0.000012133739660426643	27.408166730921643
0.00999999	0.000012594514584240312	29.626128278182417
0.0109999	0.000013019634305616021	31.767268652911394
0.0119999	0.000013420069656073143	33.84177514002045
0.0129999	0.000013793077927731825	35.857319252202316
0.013999900000000001	0.000014144144536351763	37.82066093156022
0.0149999	0.0000144760121898128	39.73717458330398
0.0159999	0.000014791423595994777	41.61132471993871
0.016999900000000002	0.000015093121462777535	43.446782679635916
0.0179999	0.000015381105790161083	45.246722638406965
0.0199999	0.000015918676534610362	48.75122829896868
0.0224999	0.0000165357858075751	52.97600271311064
0.024999900000000002	0.000017103526338702656	57.05206130169028
0.0274999	0.000017624640835872878	61.00042711186452
0.0299999	0.00001811284283848498	64.83739992088259
0.0324999	0.000018570875054418808	68.57542283022474
0.0349999	0.0000190014801915542	72.22506223215673
0.037499899999999996	0.000019407400957771006	75.7952636380326
0.0399999	0.00001979412276882891	79.2933125947375
0.044999899999999995	0.000020512712233347843	86.09678449396706
0.0499999	0.000021179190248149762	92.67445324546607
0.0549999	0.00002179081410535481	99.05664042584732
0.059999899999999995	0.000022369525468001738	105.2669547522092
0.0649999	0.000022909838920330865	111.32381039304099
0.0699999	0.000023422725293861557	117.24310173760846
0.0799999	0.000024374444928167176	128.71741875174513
0.0899999	0.00002524662603395734	139.7704173918275
0.0999999	0.000026050239442751413	150.46280959021388
0.11	0.000026809969525468003	160.83935905982827
0.12	0.000027523073574227254	170.93453338037833
0.13	0.000028197779712668692	180.77846338037398
0.13999899999999998	0.000028842316064431865	190.39383512897018
0.149999	0.000029456682629516763	199.802589569529
0.159999	0.000030049107531562905	209.02061673197574
0.169999	0.00003061959077057031	218.06199759795416
0.179999	0.00003117361776229865	226.93887788661527
0.199999	0.00003222681758815847	244.24100917259796
0.224999	0.00003346103613408794	265.11594383881777
0.249999	0.00003462394427514149	285.25645503639527
0.27499900000000005	0.000035726512842838485	304.74901089307815
0.299999	0.00003679342620809753	323.65825712832793
0.32499900000000004	0.000037797257292120156	342.042113660343
0.349999	0.00003875171963430561	359.9563230224596
0.374999	0.000039681497605572485	377.4406273429478
0.39999900000000005	0.00004058933391380061	394.5246289260654
0.44999900000000004	0.00004233095341750109	427.5987883549251
0.499999	0.00004395189377448846	459.38395259117146
0.549999	0.00004549878101872007	490.04539585689446
0.5999990000000001	0.00004700452764475403	519.6947753519011
0.649999	0.00004843622115803221	548.4312541619629
0.699999	0.00004982403134523291	576.3436570099242
0.799999	0.00005245703090988246	629.971443433666
0.899999	0.00005495015237266	681.0407516078636
0.9999990000000001	0.00005730339573356552	729.904857788098
1.1	0.00005953870265563779	776.8520612848633
1.2	0.00006170544188071396	822.0945760712165
1.3	0.00006377892903787549	865.8077918591223
1.4	0.00006578384849804092	908.1451869616061
1.5	0.00006771471484545058	949.234724797763
1.6	0.00006960169786678275	989.1823150318196
1.7	0.0000714420548541576	1028.073340127814
1.8	0.00007320835872877666	1065.9944386394393
2.	0.00007662303003918154	1139.2211265954074
2.25	0.00008026260339573356	1226.6047739213316
2.5	0.00008371018720069655	1310.2347280903202
2.75	0.00008698772311710927	1390.570399394317
3.	0.00009012263822377014	1467.9993345964854
3.25	0.00009316704397039616	1542.8177861984962
3.5	0.00009608528515454941	1615.2789805585326
3.75	0.00009893495864170656	1685.5975033598716
4.	0.00010168589464518938	1753.9520534080648
4.5	0.00010694366565084894	1885.4109036882462
5.	0.00011192716586852418	2010.72058364187
5.5	0.00011668850674793209	2130.688510690305
6.	0.00012122220287331302	2245.9692594342705
6.5	0.00012558036569438395	2357.098298153679
7.	0.00012979042228994343	2464.498224287663
8.	0.00013771739660426642	2669.5392986277343
9.	0.00014515918589464517	2863.4467037017903
10.	0.00015216104484109709	3047.9316743027885
11.	0.00015874518937744885	3224.356649754925
12.	0.00016501721375707443	3393.7776712162718
13.	0.00017097355245973008	3557.0311386080994
14.	0.00017663943839791031	3714.8264937923873
15.	0.00018204065302568568	3867.75452011416
16.	0.00018723067914671316	4016.296194990871
17.	0.0001921804440574663	4160.8670940270185
18.	0.00019691710056595559	4301.839682182881
20.	0.00020582870700914236	4574.206424655627
22.5	0.00021596904658249892	4899.257720329066
25.	0.0002251680888114933	5210.064789993884
27.5	0.00023350427514148888	5508.991576893731
30.	0.00024105604701784935	5797.914036768928
32.5	0.00024790404005224203	6078.331002107506
35.	0.00025410118850674793	6351.4635126173125
37.5	0.0002597009751850239	6618.326639857147
40.	0.00026473027862429255	6879.783326554854
45.	0.00027331989116238575	7389.270259304744
50.	0.0002800024989116238	7884.738509691359
55.	0.00028543360905528947	8369.607595969335
60.	0.00028922649978232475	8846.70050031383
65.	0.0002919286155855464	9318.496992430388
70.	0.00029353858511101436	9786.835610653952
80.	0.0002945756029603831	10718.799664689675
90.	0.00029288170657379187	11651.979761086988
100.	0.0002895504135829343	12593.360752241246
110.	0.00028457980409229424	13548.512774565865
120.	0.00027906558989986935	14521.55507647833
130.	0.0002727601044841097	15515.495813493915
140.	0.00026623794514584246	16533.200642734995
150.	0.0002596088202002612	17576.401761170724
160.	0.00025300931649978233	18646.563799204152
170.	0.00024652116673922505	19744.785712684425
180.	0.00024017179799738786	20871.99573609638
200.	0.00022816208358728774	23215.951948979196
225.	0.00021453365041358292	26316.46267213724
250.	0.00020244552198519808	29608.121322555166
275.	0.00019178692033086636	33089.49326452173
300.	0.00018239246016543318	36757.113021920304
325.	0.00017404225859817153	40607.01756784838
350.	0.00016662614105354811	44634.839234611405
375.	0.00016000672529386154	48835.40159173085
400.	0.00015401917457553331	53204.34141917406
450.	0.00014371973051806704	62430.24637067811
500.	0.00013512334349151067	72278.20148868905
550.	0.00012781797649107532	82719.39543677951
600.	0.0001215288924684371	93728.06716587274
650.	0.00011606377274706138	105279.74050896624
700.	0.00011123040835872878	117353.5331888931
800.	0.00010310173530692207	142995.67124941014
900.	0.00009651109055289507	170517.17726303136
1000.	0.00009110129124945582	199789.36634076212