# E_R [keV]  \xi_T*d_E/dx_T [keV/Å]  x_T [Å]
0.00999999	0.00047788920294348765	3.4779391645818665
0.0109999	0.0005060320906445595	3.6774711130751347
0.0119999	0.0005331246508311512	3.866407269444691
0.0129999	0.0005591668835032626	4.046149028642967
0.013999900000000001	0.0005842765824008355	4.217848849599007
0.0149999	0.0006085420928288263	4.382440761148629
0.0159999	0.0006320713923821814	4.540691962734081
0.016999900000000002	0.0006549822748008425	4.69323235265563
0.0179999	0.0006772551077948196	4.840597984078369
0.0199999	0.0007200436838286431	5.121614277394634
0.0224999	0.0007707244404385606	5.450866328196832
0.024999900000000002	0.0008188039186247656	5.759655188713617
0.0274999	0.0008644980735771509	6.0512377038899015
0.0299999	0.0009081995510955226	6.328115122046309
0.0324999	0.0009501341225147688	6.592232017496928
0.0349999	0.0009905079268797874	6.845144443990078
0.037499899999999996	0.0010293307803355737	7.088135679921479
0.0399999	0.001066514337577171	7.322316265427441
0.044999899999999995	0.001138319438216634	7.767559255681806
0.0499999	0.001205982125668147	8.18629088870538
0.0549999	0.0012705134628662098	8.582656708583958
0.059999899999999995	0.0013309514676012985	8.95998098720136
0.0649999	0.0013892790011624317	9.320836251265176
0.0699999	0.0014445438974850803	9.667220100848105
0.0799999	0.001549822052557977	10.322872032115953
0.0899999	0.0016478362603344688	10.9368239081911
0.0999999	0.0017406969919885114	11.516181766017105
0.11	0.0018273735522956144	12.066370627254372
0.12	0.0019088475557552918	12.591815696463314
0.13	0.0019872785542664755	13.095698166989457
0.13999899999999998	0.002061488610429748	13.58052698055047
0.149999	0.0021326556616445267	14.048612439354123
0.159999	0.0022017613224103254	14.501545114913494
0.169999	0.0022677258167776793	14.94077787918614
0.179999	0.0023306473061965385	15.367704739664852
0.199999	0.0024511895667368813	16.188868299686675
0.224999	0.0025908733100177502	17.162192855647568
0.249999	0.002721231715553235	18.086050640503846
0.27499900000000005	0.0028423629447932855	18.968161527895145
0.299999	0.0029572118412364455	19.814388925702307
0.32499900000000004	0.0030647967903832006	20.62935859580938
0.349999	0.003167277344132482	21.416871458266602
0.374999	0.003264555341034338	22.1799185713735
0.39999900000000005	0.0033567289425387205	22.9211370086935
0.44999900000000004	0.003529591255903169	24.346389647013094
0.499999	0.0036890054506242735	25.706063539264253
0.549999	0.0038371310786009644	27.010205506263695
0.5999990000000001	0.003975735045932368	28.266481959458417
0.649999	0.004104228383918775	29.48125259889152
0.699999	0.00422634122765834	30.659510450825646
0.799999	0.004449953010647673	32.921683216039874
0.899999	0.0046527545662473045	35.07801186872308
0.9999990000000001	0.004836807284906214	37.14647882693038
1.1	0.005005350494472801	39.140951767620514
1.2	0.005162408814395071	41.071563827766354
1.3	0.005307000630173511	42.946577465979374
1.4	0.00544324872270608	44.77264095361071
1.5	0.005570073316043314	46.55508806701248
1.6	0.00568953580063419	48.29858183120753
1.7	0.005802814113878127	50.00677357895631
1.8	0.005909711932875223	51.682854527053955
2.	0.006106918285827624	54.94974254895388
2.25	0.006329057647067685	58.89547722588719
2.5	0.006527147453069647	62.712407782851145
2.75	0.0067072737137305015	66.42038689510876
3.	0.006870418043549761	70.03468544659331
3.25	0.007019819770375818	73.56775178104057
3.5	0.007157540284657659	77.02931589299723
3.75	0.007284659362344747	80.42745278340306
4.	0.007403238393886061	83.76878677231528
4.5	0.007616739547530398	90.3024726345367
5.	0.007803540786787947	96.66689683689538
5.5	0.007969826283005651	102.88912176204765
6.	0.008118737202581954	108.98961561757793
6.5	0.0082534147119153	114.98452639214614
7.	0.008374153295355544	120.88743013075417
8.	0.008585789381450805	132.4594703752629
9.	0.00876385425166268	143.77230826647684
10.	0.008916004499087379	154.87447246488114
11.	0.00904754084202228	165.80163911851832
12.	0.009160426509466411	176.5824795804022
13.	0.009260551188416859	187.23887911730196
14.	0.009346933264374108	197.78859084403496
15.	0.009423499195336213	208.2469854106515
16.	0.009492212210302208	218.62514017577035
17.	0.009553072309272086	228.93272681909957
18.	0.009607061106745366	239.17861182312666
20.	0.009698351255200187	259.51395480245935
22.5	0.00978865978915549	284.69530317747126
25.	0.009857372804121484	309.67396492213396
27.5	0.009910379987095251	334.49972725827547
30.	0.009950626181575334	359.20952427863966
32.5	0.009981056231060274	383.83230218669445
35.	0.010004614979048613	408.3888632173673
37.5	0.010021302425540356	432.89627011433737
40.	0.010033081799534525	457.36913762368624
45.	0.010043879559029181	506.2559888519352
50.	0.010044861173528695	555.1167195581514
55.	0.010039953101031125	603.987997685672
60.	0.010030136956035983	652.8955297027532
65.	0.010016394353042782	701.8613389004248
70.	0.010001670135550072	750.8994352279788
80.	0.010009523051546183	849.0679495876649
90.	0.010132224863985458	946.5643995797632
100.	0.010200937878951452	1043.0824872169678
110.	0.010234312771934932	1139.1302123350429
120.	0.010244128916930075	1234.9841384566114
130.	0.010241184073431534	1330.8116497754845
140.	0.010229404699437361	1426.7115410840108
150.	0.010213698867445135	1522.7434426887037
160.	0.010197011420953396	1618.929295188086
170.	0.010180323974461652	1715.27345804055
180.	0.010164618142469425	1811.7717945634618
200.	0.010140077779981571	2005.1674323396676
225.	0.010124371947989345	2247.4017933789146
250.	0.01012535356248886	2489.812324797043
275.	0.010143022623480115	2731.9988464821968
300.	0.010176397516463596	2973.5751068136333
325.	0.010224496626939791	3214.1838115697806
350.	0.010285356725909672	3453.5105730823366
375.	0.010357014584374206	3691.2991526249443
400.	0.0104394702023334	3927.324331243368
450.	0.010630885029738666	4393.330538986513
500.	0.01084978506313033	4850.4126213931995
550.	0.011092243844510335	5297.868155782332
600.	0.011352371686881595	5735.291612270604
650.	0.011628205361245082	6162.499793894207
700.	0.011912873566104196	6579.526691560907
800.	0.012511658410807853	7383.660731124085
900.	0.013133020389000332	8149.431818905883
1000.	0.0137602720541899	8879.61111329499
1100.	0.014399303093373637	9576.94724067332
1200.	0.01504422381955446	10243.83176594885
1300.	0.0156832548587382	10882.831759377152
1400.	0.016323267512421444	11496.281943420094
1500.	0.016952482406610042	12086.32129049527
1600.	0.017579734071799608	12654.89808977461
1700.	0.018204040893490633	13203.56786041538
1800.	0.018813623497688947	13733.935727376114
2000.	0.020008248343597712	14745.573086869072
2250.	0.02146300103187774	15929.327195851292
2500.	0.022867691380682547	17036.62523212341
2750.	0.024215448088515525	18079.144222852505
3000.	0.025515792816021968	19066.125765421417
3250.	0.02676509358955368	20004.953981051065
3500.	0.02797218493960628	20901.642190816383
3750.	0.02913569260588044	21761.089612232485
4000.	0.030254831296776575	22587.493142274205
4500.	0.0323666767310314	24154.94228860997
5000.	0.03432332891291303	25626.730782878414
5500.	0.03614137712746326	27019.654925070667
6000.	0.0378288706135781	28346.532151541287
6500.	0.039384238788058336	29617.659186773366
7000.	0.04081631618139959	30841.446350093545
8000.	0.0433763667961326	33172.20103643475
9000.	0.0455735145303952	35378.36291215046
10000.	0.04745379710421463	37487.918711536295