# E_R [keV]  \xi_T*d_E/dx_T [keV/Å]  x_T [Å]
0.0011	0.000017324539806684865	2.604249734604884
0.0012	0.00001781838766324799	2.9432338927261394
0.0013000000000000002	0.000018445514941341402	3.2714931386322226
0.0014	0.000019042297351139965	3.5889089065695874
0.0015	0.000019603974913303324	3.896811554345856
0.0016	0.000020142447576182393	4.19619820235642
0.0017	0.000020658905334612258	4.4878436362457865
0.0018000000000000002	0.000021153943186010473	4.772432662378453
0.002	0.000022077974175459307	5.322843934791321
0.0022500000000000003	0.000023151944514129712	5.9804985299708076
0.00249999	0.000024137260237585776	6.609489902759588
0.00274999	0.000025049391278683685	7.214263742450202
0.00299999	0.000025906187559949823	7.798048471169944
0.00324999	0.000026703484099461372	8.363484062344314
0.00349999	0.000027459130819744705	8.912713763959857
0.00374999	0.00002816717774662436	9.447497213449715
0.00399999	0.000028845474802626722	9.96928478786447
0.004499990000000001	0.000030094969379473177	10.978565036397885
0.00499999	0.00003124331439533682	11.948453646405781
0.005499990000000001	0.00003230240979856858	12.88466536674002
0.00599999	0.00003328415553751937	13.791762566703284
0.006499990000000001	0.000034200451560540104	14.673359431377577
0.00699999	0.000035057247841806235	15.532395999469617
0.00799999	0.0000366280410241275	17.191999345696583
0.008999990000000001	0.00003803818490371136	18.785433279284085
0.00999999	0.000039323379325610564	20.323415358016632
0.0109999	0.00004050147421235151	21.81384121037835
0.0119999	0.00004159031948646056	23.263262657497123
0.0129999	0.00004259586512211318	24.67665749980429
0.013999900000000001	0.00004354191101601121	26.058047769939304
0.0149999	0.00004442250719397918	27.410761912971367
0.0159999	0.000045255503578543495	28.73764660287991
0.016999900000000002	0.000046040900169704116	30.041013655832675
0.0179999	0.00004678464694163653	31.322921171066152
0.0199999	0.000048170990924518555	33.82899833725878
0.0224999	0.000049735834132664345	36.86695815402176
0.024999900000000002	0.000051145978012248206	39.81546605342119
0.0274999	0.00005243712240832288	42.68717006849619
0.0299999	0.00005362116726923928	45.49190293591858
0.0324999	0.00005471596251752379	48.237702755546245
0.0349999	0.00005573935807570279	50.930886799649954
0.037499899999999996	0.000056697303917951734	53.5766284281551
0.0399999	0.00005759575001844609	56.179419669471315
0.044999899999999995	0.00005924984283922378	61.27064882661011
0.0499999	0.000060749236331439536	66.22827335060855
0.0549999	0.00006211773039179517	71.07032641567702
0.059999899999999995	0.00006338507489116799	75.8107975171247
0.0649999	0.00006456316977790893	80.46072196601338
0.0699999	0.00006566391500036893	85.0293354582816
0.0799999	0.00006768095624584962	93.95168308730817
0.0899999	0.00006950164834354018	102.62490538739922
0.0999999	0.00007117359108684424	111.08309548226981
0.11	0.00007272058437246366	119.35237284260141
0.12	0.00007417237807127574	127.45291808607776
0.13	0.00007554087213163137	135.40094932989174
0.13999899999999998	0.0000768379665018815	143.2092474853575
0.149999	0.00007807556113037704	150.89061473913807
0.159999	0.00007925960599129344	158.4537906501395
0.169999	0.00008039605105880616	165.9071242941546
0.179999	0.00008150274625544159	173.25722444732543
0.199999	0.00008359713716520327	187.6708546310271
0.224999	0.00008606637644801889	205.204008854165
0.249999	0.000088386866376448	222.25613603586282
0.27499900000000005	0.00009060025676971887	238.8765151516376
0.299999	0.000092700597653656	255.1058540216256
0.32499900000000004	0.00009471763889913672	270.9791043992494
0.349999	0.00009669303032538919	286.5212017590723
0.374999	0.0000985791721390098	301.75590137314106
0.39999900000000005	0.00010042366413340219	316.70521370379396
0.44999900000000004	0.0001039460488452741	345.8171253166863
0.499999	0.00010730183428023314	373.98222689475045
0.549999	0.00011054457020585847	401.2944611547471
0.5999990000000001	0.00011366235667379915	427.83157654159055
0.649999	0.00011665519368405519	453.6649244430374
0.699999	0.00011957068103003026	478.85231848598573
0.799999	0.00012509820703903192	527.4864163723796
0.899999	0.00013039368405519072	574.0622947239345
0.9999990000000001	0.00013543331218180476	618.8277394569184
1.1	0.0001403241909540323	661.9814033010249
1.2	0.00014498302073341697	703.6894257970005
1.3	0.00014946930126171325	744.1035984114811
1.4	0.00015388418209990408	783.3315426210378
1.5	0.00015810866376448016	821.4728786546584
1.6	0.00016225579576477532	858.6178030088736
1.7	0.00016625417841068397	894.8414678743717
1.8	0.00017016926141813618	930.2134758852953
2.	0.00017771977864679405	998.623673390629
2.25	0.00018561539437762854	1080.4746157470477
2.5	0.00019308856194200544	1159.0289146748423
2.75	0.00020023448092673204	1234.6655150970053
3.	0.00020714835091861577	1307.6924098490008
3.25	0.0002138301719176566	1378.3608985858698
3.5	0.00022032754371725815	1446.884116646771
3.75	0.0002266226163948941	1513.4455134167824
4.	0.0002327213399247399	1578.2111244047514
4.5	0.000244472538921272	1702.8977668839589
5.	0.00025566444034531095	1821.8643461911959
5.5	0.0002663981937578396	1935.8340273490812
6.	0.0002766618992105069	2045.3958939294014
6.5	0.0002865031564967166	2151.047422124197
7.	0.0002960231151774515	2253.1879995359445
8.	0.0003140991367224968	2448.2216700045387
9.	0.00033103276322585403	2632.6706697617374
10.	0.00034696976905482176	2808.17835531648
11.	0.0003620749684940603	2976.001402668629
12.	0.00037633586659780116	3137.149996535103
13.	0.00038992144263262743	3292.443981404219
14.	0.0004028840563712831	3442.5358964771885
15.	0.0004151588530952556	3587.9984077992435
16.	0.0004269802617870582	3729.299498311386
17.	0.00043822511798125865	3866.8317165632493
18.	0.0004489499464325242	4000.9591024952383
20.	0.0004691322588356821	4260.16541694667
22.5	0.0004920979691581199	4569.591889662393
25.	0.0005127336695934479	4865.594328343616
27.5	0.000531324958902088	5150.481117913041
30.	0.0005481009110897956	5426.038030591458
32.5	0.0005632346704050763	5693.684505697636
35.	0.000576780381612927	5954.599899763681
37.5	0.0005889141639489412	6209.768027081865
40.	0.0005995741376816941	6460.045864634041
45.	0.0006178304434442558	6948.550602374728
50.	0.0006319538971445436	7424.426155648268
55.	0.0006431273536486387	7890.874858362294
60.	0.0006507498655648195	8350.543582995646
65.	0.0006554122653287095	8805.939064673654
70.	0.0006583021677857301	9258.745927059523
80.	0.000658159368405519	10161.922261578306
90.	0.0006532851495609826	11068.773136038697
100.	0.000643670586290858	11985.900696939547
110.	0.0006316915032834059	12918.740291988466
120.	0.0006179393279716667	13870.906158908958
130.	0.0006036010802036449	14845.03662526161
140.	0.0005884970707592415	15843.264415968071
150.	0.0005732800118055042	16867.612254589567
160.	0.0005581867123146166	17919.43989175671
170.	0.0005434545762561793	18999.76993387159
180.	0.000529143103371947	20109.36845220986
200.	0.0005021938853390392	22418.503978294237
225.	0.00047173257604958313	25476.007765538117
250.	0.00044485178271969306	28724.6620839781
275.	0.00042113209166974103	32162.85901835993
300.	0.00040015533871467574	35787.90086022283
325.	0.00038162259715192196	39595.84049118264
350.	0.0003651165952925551	43582.10418366989
375.	0.0003502795611894045	47742.74861218211
400.	0.0003369324601195307	52073.80794215166
450.	0.0003138140734597506	61231.193106110564
500.	0.00029445018000442703	71025.34495564207
550.	0.00027800617687596843	81429.72609690744
600.	0.0002637670556777097	92421.41265897804
650.	0.000251315544720726	103981.2877683081
700.	0.0002403536692983103	116090.49836827377
800.	0.00022194522269608206	141884.37074261345
900.	0.00020711146107872794	169663.99798315525
1000.	0.0001948991390835977	199300.53002918887