# E_R [keV]  \xi_T*d_E/dx_T [keV/Å]  x_T [Å]
0.0011	0.0003342354359920312	1.5324606509729861
0.0012	0.0003513287378440197	1.6702834035995813
0.0013000000000000002	0.00036906421899210505	1.8014037013305302
0.0014	0.00038623779325610565	1.9264432871676425
0.0015	0.0004028447387294325	2.0461295312571837
0.0016	0.00041904087832952107	2.161037964796834
0.0017	0.0004347317739245923	2.271653826047005
0.0018000000000000002	0.00045006380461890346	2.378391702697651
0.002	0.000479651271305246	2.5815630319467635
0.0022500000000000003	0.0005146453210359329	2.8190333415086237
0.00249999	0.0005480055910868441	3.041226430180154
0.00274999	0.0005803128759684201	3.250482038254583
0.00299999	0.0006106369600826384	3.44873052707934
0.00324999	0.0006403849715930051	3.6374624715864257
0.00349999	0.0006686691920607982	3.817817997590785
0.00374999	0.0006959618121449126	3.9908349748328353
0.00399999	0.000722687803438353	4.157264325617087
0.004499990000000001	0.0007736843945989817	4.472838549844644
0.00499999	0.0008221311562015787	4.768743692284486
0.005499990000000001	0.0008680280882461446	5.048126346528353
0.00599999	0.0009119418195233526	5.31341631574595
0.006499990000000001	0.0009542973216262082	5.566437000743215
0.00699999	0.0009946696229617058	5.808712979296671
0.00799999	0.0010714006050320962	6.265827826030805
0.008999990000000001	0.0011435513377112076	6.692207301402845
0.00999999	0.0012116884497897144	7.0931830866345225
0.0109999	0.0012763313509923998	7.4727163909864
0.0119999	0.0013374328222533754	7.834023326368881
0.0129999	0.001396031683022209	8.179517282156798
0.013999900000000001	0.001452600123957795	8.511037934976656
0.0149999	0.0015066659544012394	8.830159992680713
0.0159999	0.0015587485840773256	9.138232245561632
0.016999900000000002	0.0016088007939201651	9.436372217497535
0.0179999	0.0016573892127204307	9.72551011547085
0.0199999	0.0017499858009296834	10.27979368228742
0.0224999	0.001858872966870803	10.933980705633044
0.024999900000000002	0.001960724491994392	11.552066557767542
0.0274999	0.002056531976684129	12.13974100715436
0.0299999	0.002146909268796576	12.701393382954958
0.0324999	0.002233225721242529	13.240394185045693
0.0349999	0.0023155285530878766	13.759407891031358
0.037499899999999996	0.002393864983398509	14.260720642783161
0.0399999	0.0024691793934922155	14.746198117189499
0.044999899999999995	0.0026108365911606283	15.675604272304515
0.0499999	0.002742483346860473	16.557585738762015
0.0549999	0.002866055642293219	17.399435604397677
0.059999899999999995	0.0029816951346565332	18.206853976292397
0.0649999	0.003091290586585995	18.984341836728017
0.0699999	0.0031954086268722788	19.735398401731505
0.0799999	0.00338810963476721	21.16957886728255
0.0899999	0.003564236750534937	22.52774313607195
0.0999999	0.0037268592134582744	23.822840305766608
0.11	0.003877960224304582	25.064535596663344
0.12	0.004018531383457536	26.260371671118612
0.13	0.004150555891684497	27.41632576736487
0.13999899999999998	0.004275072568435033	28.53697734479512
0.149999	0.004392506385302147	29.626463409812928
0.159999	0.004503990599867187	30.687929050057683
0.169999	0.004610327936250276	31.724027191266618
0.179999	0.004711235080056076	32.73709139870972
0.199999	0.004900394658009296	34.70193303978224
0.224999	0.005115288626872278	37.058681477551815
0.249999	0.0053100672736663464	39.32296485958488
0.27499900000000005	0.005491482924813694	41.508365100138164
0.299999	0.005653066568287463	43.62659771672215
0.32499900000000004	0.005809361676381613	45.68614538942571
0.349999	0.005950074492732235	47.693661724269305
0.374999	0.006086065402493911	49.655093665636656
0.39999900000000005	0.0062116681177599034	51.57475494813181
0.44999900000000004	0.0064430415406183114	55.30523339180396
0.499999	0.006648916667896406	58.911191298057524
0.549999	0.006834015406183133	62.41277075375777
0.5999990000000001	0.007004004043385228	65.82467917669658
0.649999	0.007163132295432744	69.15731040936697
0.699999	0.007307150446395631	72.42009406184792
0.799999	0.007564494355493247	78.76829424374395
0.899999	0.007790201490444919	84.9172542296023
0.9999990000000001	0.00798993813915738	90.9005670593965
1.1	0.008164176492289529	96.74565758492062
1.2	0.008321888172360362	102.47340037920176
1.3	0.008468739467276616	108.09726102502877
1.4	0.008600008470449345	113.62933796400173
1.5	0.00871569518187855	119.08276211835805
1.6	0.008825715605401015	124.46625581667448
1.7	0.008929597550357852	129.78466408578458
1.8	0.009018841584888955	135.0458461221799
2.	0.009189302412749943	145.42057553375537
2.25	0.009366846100494354	158.14036279320592
2.5	0.009516530539363978	170.64065042818726
2.75	0.009643549826606654	182.9612348787339
3.	0.009758764347376964	195.12803722690882
3.25	0.009852258097838115	207.16556440394703
3.5	0.009938668988415847	219.09418833658788
3.75	0.010013747303180106	230.92627654107778
4.	0.01008221494871984	242.67397080780657
4.5	0.010190818800265622	265.95989864711066
5.	0.010279590644137828	289.0238374487868
5.5	0.01035419676824319	311.9052255075623
6.	0.010409915265992766	334.6435771184955
6.5	0.01045807871320003	357.2696727481351
7.	0.010497742728547184	379.8009229995184
8.	0.010554877798273443	424.64951245703656
9.	0.01058840333505497	469.3097689122404
10.	0.010613901630635282	513.8485911067635
11.	0.010632317066332175	558.2949398743343
12.	0.010640344307533387	602.6871843675333
13.	0.010647899358075702	647.0471824682066
14.	0.010646482786099016	691.3953750015543
15.	0.010650260311370176	735.7395528371064
16.	0.010650260311370176	780.0743917144875
17.	0.010646954976757913	824.417012737121
18.	0.010645066214122333	868.7711678439139
20.	0.010643177451486754	957.4950961629119
22.5	0.010644121832804545	1068.406195723623
25.	0.010646010595440123	1179.3045465797977
27.5	0.010656398789935807	1290.1387864041526
30.	0.010667259175090383	1400.8744307079176
32.5	0.01071400605032096	1511.3403114805058
35.	0.010827331808455692	1620.9446157271384
37.5	0.01087927278093411	1729.670020266069
40.	0.01089343850070095	1838.0809134775145
45.	0.010865107061167266	2055.0007922496397
50.	0.010808444182099902	2272.849611860161
55.	0.010760280734892642	2491.7941198441413
60.	0.010727699579428906	2711.572497428099
65.	0.010716839194274326	2931.799644876013
70.	0.010725810816793328	3152.0447732364014
80.	0.01080419446616985	3590.9262148420266
90.	0.01094160194790821	4025.38093846976
100.	0.01112009001697041	4453.576362870783
110.	0.011333048004131926	4874.275572084916
120.	0.01156631018962591	5286.744615653241
130.	0.011812321522910054	5690.7421310867485
140.	0.012067776669372093	6086.242112455665
150.	0.012326064959787499	6473.412665535159
160.	0.012594269254039695	6852.394041082376
170.	0.012857751641702941	7223.448735113024
180.	0.01312406717331956	7586.94362777226
200.	0.01365764261787058	8292.263952034578
225.	0.014318709540323174	9136.285130013592
250.	0.014967499505644506	9942.52410783893
275.	0.015603068132516785	10714.886826451666
300.	0.016230609518187854	11456.580668187196
325.	0.01683784670552645	12170.568385251298
350.	0.01743658446100494	12859.444905600785
375.	0.018024934021987748	13525.250982705242
400.	0.018601951007157082	14169.86816571261
450.	0.019725764775326494	15402.043406548824
500.	0.02083541282372906	16566.421785291797
550.	0.021935617058953735	17670.66575722951
600.	0.023047153869991878	18720.650878061857
650.	0.024176633926068027	19720.802472928888
700.	0.025322640655205484	20674.962844009766
800.	0.02766990042057109	22458.6244885933
900.	0.030081378115546367	24095.056674646337
1000.	0.0325235482033498	25604.35652246605