# E_R [keV]  \xi_T*d_E/dx_T [keV/Å]  x_T [Å]
0.0011	0.0002373713444027852	1.033349188419172
0.0012	0.00024903087111067824	1.1402035549307519
0.0013000000000000002	0.00026162523737644253	1.2419364152326304
0.0014	0.000273804119394264	1.338939298202557
0.0015	0.0002856194526951356	1.4317817044772265
0.0016	0.00029714914057554656	1.5209013699365503
0.0017	0.0003081335053805327	1.6067077935845204
0.0018000000000000002	0.0003190919024200224	1.6895155311303656
0.002	0.0003401517602376199	1.8470640419865563
0.0022500000000000003	0.00036521065394166626	2.031153849486314
0.00249999	0.00038884132054340943	2.203347497765894
0.00274999	0.0004115890831182743	2.3655721716527216
0.00299999	0.0004334279739007644	2.519232337884306
0.00324999	0.0004544358961873691	2.66547697930367
0.00349999	0.00047482059210205964	2.8052045298726767
0.00374999	0.0004943743195208647	2.9391751832344633
0.00399999	0.0005136164337537127	3.0679901516616574
0.004499990000000001	0.0005498154988557238	3.3121800424129146
0.00499999	0.0005845344013244389	3.5411202926004757
0.005499990000000001	0.0006175653990358864	3.7571472680751516
0.00599999	0.0006491162341140381	3.9621570486958393
0.006499990000000001	0.0006792648098553828	4.157646889061067
0.00699999	0.0007085304815698495	4.344768652425969
0.00799999	0.0007639197253737157	4.697494538608106
0.008999990000000001	0.0008158552563665579	5.026256262503396
0.00999999	0.0008649343331547937	5.335255852014131
0.0109999	0.0009114426011588841	5.627601396867767
0.0119999	0.0009559513512197498	5.905722087645471
0.0129999	0.000998460583337391	6.171459672758543
0.013999900000000001	0.0010395156205872328	6.4262971982342005
0.0149999	0.0010785971076593466	6.671492146698058
0.0159999	0.0011165360130496176	6.908089175021945
0.016999900000000002	0.0011533323367580465	7.136891784985686
0.0179999	0.001188700433364172	7.358643042994364
0.0199999	0.001256606140137313	7.7834481708726395
0.0224999	0.001336093470321858	8.284219582580029
0.024999900000000002	0.0014110104737790328	8.756845039709548
0.0274999	0.001481383118274334	9.20572832970454
0.0299999	0.0015483539854896041	9.63426611139655
0.0324999	0.001611923075424843	10.045100342249219
0.0349999	0.0016726616789209717	10.440388771101684
0.037499899999999996	0.0017308294736329553	10.821867986868941
0.0399999	0.0017867380727467496	11.190976695611175
0.044999899999999995	0.001892582684910162	11.89670042592531
0.0499999	0.0019910524516725905	12.565294706423428
0.0549999	0.0020833159224813752	13.202603986484737
0.059999899999999995	0.0021707234211423283	13.813000471296982
0.0649999	0.0022533268831864436	14.399936612606444
0.0699999	0.0023316716316891467	14.96627432912631
0.0799999	0.0024781557968544575	16.045898436014923
0.0899999	0.0026123572089399617	17.06600726544775
0.0999999	0.002736742805667819	18.03682899351835
0.11	0.0028528187174368213	18.965908163176366
0.12	0.002961623654866826	19.8590390153214
0.13	0.0030628979403028683	20.721062240653925
0.13999899999999998	0.0031610560938793394	21.55539535287335
0.149999	0.003253501339046599	22.364982173603266
0.159999	0.0033402336758046446	23.152591906917827
0.169999	0.0034241095583580853	23.92033649635441
0.179999	0.0035025322101572766	24.670087352107313
0.199999	0.0036534049276914834	26.121803191506604
0.224999	0.0038234937916930417	27.857952750840283
0.249999	0.003979300384671568	29.5217212585163
0.27499900000000005	0.00412368116083167	31.123911408549937
0.299999	0.004258973219068024	32.67263685315194
0.32499900000000004	0.004383358815795881	34.174850915029495
0.349999	0.004501512148804596	35.6360851750731
0.374999	0.0046113557968544576	37.06075701044592
0.39999900000000005	0.004715486536495107	38.452777645614994
0.44999900000000004	0.004908686711788479	41.150389872004716
0.499999	0.005082151385304572	43.7490600937926
0.549999	0.005240814432487705	46.26424842511211
0.5999990000000001	0.005387532307542485	48.707211349628636
0.649999	0.005522824365778839	51.08706743872044
0.699999	0.005649287383746408	53.411199868889575
0.799999	0.005875985976530165	57.916013738077346
0.899999	0.006078534547402249	62.25941676048178
0.9999990000000001	0.006257712129327555	66.46860672200394
1.1	0.006421568729609972	70.56408947840114
1.2	0.006568026927009788	74.56180680527014
1.3	0.006704877051175925	78.47431497374741
1.4	0.006829782003213712	82.3111457294539
1.5	0.006945338559672785	86.08106108458358
1.6	0.007052066075863076	89.79116888368236
1.7	0.007152561328334226	93.44719726534288
1.8	0.00724656463943127	97.05385217764375
2.	0.00741925027998247	104.13528712855798
2.25	0.0076064778692116666	112.77420764204793
2.5	0.00777137318011394	121.21585469150459
2.75	0.007916792666893898	129.49088057574312
3.	0.008048968593270681	137.62216141363774
3.25	0.008165304182694648	145.62891740283584
3.5	0.00827151234357501	153.52748477072342
3.75	0.00836759307591177	161.3301353286893
4.	0.008456662511564492	169.04703335422596
4.5	0.008614027170472806	184.25560220924626
5.	0.008749578906364124	199.2083383190573
5.5	0.008867212884062909	213.94680575510554
6.	0.008972642011978381	228.50121534816728
6.5	0.009063788868870819	242.89719742478425
7.	0.009146106685494473	257.15647230219616
8.	0.009289189073379753	285.32197876383464
9.	0.009408121439353363	313.0941840551763
10.	0.009509395724789406	340.54472640773884
11.	0.009600282904026878	367.7197676482506
12.	0.00967818620051614	394.6574523914153
13.	0.009750895943906119	421.3869094336229
14.	0.009815815357647173	447.92833930261713
15.	0.00987554121828894	474.3020465605015
16.	0.009930073525831425	500.5235969668969
17.	0.009979412280274625	526.608905489573
18.	0.010028751034717828	552.5659884485955
20.	0.010122234990504941	604.1083233851265
22.5	0.010223509275940986	667.919579030995
25.	0.010322186784827384	731.1125500948604
27.5	0.01041307396406486	793.7270910887036
30.	0.010498767590203047	855.8128892579296
32.5	0.01057667088669231	917.4078607194028
35.	0.0106130257583873	978.6767961811148
37.5	0.010667558065929783	1039.6965687009672
40.	0.010732477479670838	1100.3734519580403
45.	0.010885687296099723	1220.5225278538144
50.	0.011064864878025028	1338.8426889967097
55.	0.0112544295661489	1455.201225533398
60.	0.011454381360471345	1569.5617799713996
65.	0.01165952670789307	1681.9158650503855
70.	0.011869865608414083	1792.284185626714
80.	0.01228794663290646	2007.2869773328587
90.	0.01270602765739884	2215.0931826842857
100.	0.013116318352242294	2416.2296681371467
110.	0.013524012270536104	2611.187755539225
120.	0.013921319082631348	2800.4246788675264
130.	0.014313432341627307	2984.374147656634
140.	0.01470294882407362	3163.365166691795
150.	0.015082078200321371	3337.7374248873152
160.	0.015461207576569118	3507.7804566537934
170.	0.0158299498466183	3673.7586451814245
180.	0.016198692116667475	3835.9177303095807
200.	0.01692215406339777	4149.535765976251
225.	0.017813108097579976	4523.385313838676
250.	0.018687702439499437	4879.144482910999
275.	0.01954931289867069	5218.748810633659
300.	0.020401834639918195	5543.78174717542
325.	0.02124812411744656	5855.553619424228
350.	0.022085844232361103	6155.205643680754
375.	0.022916553050591617	6443.748222676597
400.	0.02374388605930759	6722.036130902406
450.	0.025379595607927154	7250.811920084529
500.	0.026994790621804546	7746.750273457484
550.	0.02859336626576423	8213.986430864094
600.	0.030153769294444174	8656.098148233392
650.	0.03172326104104787	9075.835752608276
700.	0.03324860758630764	9475.550189352112
800.	0.03623879578322053	10223.273016974332
900.	0.039143290353995226	10912.443734073924
1000.	0.04195715742318741	11552.963583843275