# E_R [keV]  \xi_T*d_E/dx_T [keV/Å]  x_T [Å]
0.0011	0.0008435528928275797	0.9904475592065708
0.0012	0.0008931544899449776	1.0757514773568468
0.0013000000000000002	0.000944258941422798	1.1563552174088474
0.0014	0.0009938087159760433	1.2327596167258381
0.0015	0.0010417964103812633	1.3055033564116494
0.0016	0.0010889771534303941	1.374998948050457
0.0017	0.0011353583483468862	1.4415684583667088
0.0018000000000000002	0.0011801922695622536	1.5055150162285629
0.002	0.001268986531625846	1.626488459989195
0.0022500000000000003	0.0013747045624969568	1.7665361139054294
0.00249999	0.001476498884939378	1.8963857016775347
0.00274999	0.0015751838535326482	2.017704542004341
0.00299999	0.001670685436042265	2.1317618849142668
0.00324999	0.001763817987047768	2.239551193030482
0.00349999	0.0018538411842041194	2.3418802057854355
0.00374999	0.0019415693820908604	2.4394177965414263
0.00399999	0.002027668870818523	2.5326828818792375
0.004499990000000001	0.0021936491405755466	2.70809865883851
0.00499999	0.00235341070263427	2.8709422119070775
0.005499990000000001	0.002507027589229197	3.0232802843905926
0.00599999	0.00265583238058139	3.166693793355705
0.006499990000000001	0.0028007874957393978	3.3023808718083947
0.00699999	0.002940412290013147	3.4313384501440067
0.00799999	0.003210185752544188	3.6721430485913062
0.008999990000000001	0.003467595831913133	3.893915621628305
0.00999999	0.0037141231728100507	4.10011706045681
0.0109999	0.003951396484394021	4.293280541089895
0.0119999	0.00418015608901008	4.475386012591056
0.0129999	0.004401956663582803	4.64792794650965
0.013999900000000001	0.004616798208112188	4.812114316235566
0.0149999	0.004826309431757317	4.9689204092411
0.0159999	0.005029601947704144	5.119157082048904
0.016999900000000002	0.00522830446511175	5.263505222479415
0.0179999	0.005421602629400594	5.402539082174532
0.0199999	0.0057973902517407605	5.666548592693109
0.0224999	0.006244841077080392	5.97398163059269
0.024999900000000002	0.006673117553683595	6.260566092502104
0.0274999	0.007083626294005942	6.529668305173929
0.0299999	0.007478884394020549	6.783876157513289
0.0324999	0.007860298466182986	7.0252051661295
0.0349999	0.008226461898037688	7.2553204352497
0.037499899999999996	0.008584851945269513	7.475522658146312
0.0399999	0.008935542640112969	7.686807961492027
0.044999899999999995	0.009606274684715393	8.086111383157489
0.0499999	0.010239028193017481	8.459188590374001
0.0549999	0.010848609611919949	8.810291776850473
0.059999899999999995	0.011435241038126308	9.142535315445086
0.0649999	0.011998996503871063	9.458459799242073
0.0699999	0.012539950041388713	9.760160483385587
0.0799999	0.013575883098797294	10.32718942987921
0.0899999	0.01455073956274042	10.853654549457977
0.0999999	0.015479770073525833	11.346733497021184
0.11	0.016363122695622536	11.811739798271777
0.12	0.017208348716949894	12.252800314116897
0.13	0.018022999425427278	12.673078013204188
0.13999899999999998	0.018807148853289185	13.075062967914786
0.149999	0.019560945065004626	13.460973126065063
0.159999	0.020291865316258463	13.832507602877099
0.169999	0.020999983639285194	14.191090083411748
0.179999	0.02168522600185032	14.537966862067867
0.199999	0.023002555582607005	15.200671034161095
0.224999	0.02456315508594245	15.978896179931212
0.249999	0.026025291717388134	16.710609964808803
0.27499900000000005	0.02741931869309052	17.40322628453733
0.299999	0.028744495690704582	18.062296032073085
0.32499900000000004	0.030008966256025713	18.692315869363163
0.349999	0.031220133612504263	19.296864759895588
0.374999	0.03238614130593563	19.878823166309488
0.39999900000000005	0.03351365223742514	20.44052401712425
0.44999900000000004	0.03563985801236792	21.511019176492535
0.499999	0.03764465092272484	22.5211962162429
0.549999	0.03952877129084093	23.480462934486464
0.5999990000000001	0.04132035136582753	24.39611712217877
0.649999	0.04301420889126943	25.27393108341052
0.699999	0.04463995676096801	26.11851286463154
0.799999	0.04768564288844524	27.72206682085323
0.899999	0.05049664683254614	29.229991699586666
0.9999990000000001	0.05311738793397284	30.658894911939285
1.1	0.055578959731216834	32.0210011153907
1.2	0.057888765447728495	33.325823375870826
1.3	0.060077158299654286	34.58091127694945
1.4	0.06215894473389493	35.792152557285426
1.5	0.06413560539514049	36.96447583232391
1.6	0.06602786930905195	38.10196114386941
1.7	0.06783721712031941	39.207991240537574
1.8	0.06957031173004821	40.28551230096802
2.	0.0728469784291766	42.36463244837555
2.25	0.07664039012514	44.840444843324974
2.5	0.08010139708818231	47.201721445056656
2.75	0.08333290412426353	49.466382833092275
3.	0.0863378725227638	51.647768399026155
3.25	0.08911556196133809	53.75730423957449
3.5	0.091740744996835	55.80394493804852
3.75	0.09428819418610314	57.79360393156829
4.	0.09661058538248041	59.73245636179374
4.5	0.1010229065588937	63.47794765250571
5.	0.10505544237230366	67.06973447138618
5.5	0.10870819282271026	70.5325240627488
6.	0.11213144334615573	73.88442691105051
6.5	0.11525190203048158	77.1399196478127
7.	0.11821837366703998	80.31064959151159
8.	0.1235435122948824	86.43294791550652
9.	0.12825788498807034	92.31176285928461
10.	0.13251399814968107	97.98867181659755
11.	0.13638736465890833	103.49414960880726
12.	0.13995349739494573	108.85137483181761
13.	0.14313984476797975	114.08100387553841
14.	0.14616924380386623	119.19837689672441
15.	0.14889511067828798	124.21590986665433
16.	0.1514662501825973	129.145152567617
17.	0.1538834026391391	133.9938601565356
18.	0.15614656804791355	138.76936185305254
20.	0.1602131586891951	148.12737589148415
22.5	0.16471431854701274	159.5167308078618
25.	0.1686750430929542	170.61724364464303
27.5	0.17210273555046987	181.47759321472532
30.	0.17521208939962019	192.13406835886929
32.5	0.1780105078638555	202.61229427333424
35.	0.18049799094317573	212.93619490809192
37.5	0.1827559740955349	223.1253841383099
40.	0.18477705409748263	233.1960466252279
45.	0.18834540780055511	253.03235894196544
50.	0.19129189073379754	272.52918900232174
55.	0.19384600282417103	291.74841307425464
60.	0.19599293762477482	310.7361568962153
65.	0.19782893704046356	329.5325198978664
70.	0.19942803330574088	348.16668174010323
80.	0.20197474217266398	385.0420087215832
90.	0.20387737059940597	421.51610712560597
100.	0.20528398305497397	457.6974447260804
110.	0.20635745045527587	493.6619575511491
120.	0.20709777280031166	529.469263158214
130.	0.2075863855480353	565.1710804511097
140.	0.2078306919218971	600.8109613803309
150.	0.20797135316745388	636.418901537605
160.	0.20801577250815603	672.0105762130706
170.	0.2078973209329503	707.6093787377881
180.	0.2077936758046453	743.2328045230389
200.	0.21005906218045484	814.2419456920252
225.	0.21069573939718558	902.1500068296308
250.	0.20997022349905048	990.1119362227089
275.	0.20875609485319183	1078.5021629198245
300.	0.20736428884452454	1167.4531885711526
325.	0.2058910473779033	1257.0281362776686
350.	0.2046399026147928	1347.1994685692412
375.	0.20341837074548377	1437.91791172416
400.	0.20245595169693723	1529.1269879131594
450.	0.20093829088961387	1712.6931349647737
500.	0.1999906782879681	1897.3875731580326
550.	0.19957609777474805	2082.7029462081355
600.	0.1995094687636948	2268.231418590653
650.	0.19970935579685448	2453.6899422080046
700.	0.20004990407557094	2638.892963806878
800.	0.20116038759312463	3007.9993104742366
900.	0.20240412913278477	3374.9089942327223
1000.	0.20373670935384916	3739.4846179678184