# E_R [keV]  \xi_T*d_E/dx_T [keV/Å]  x_T [Å]
0.0011	4.39308701735809e-6	2.611780389103458
0.0012	4.50998752032674e-6	2.992965185948084
0.0013000000000000002	4.677883749952727e-6	3.3619452203167435
0.0014	4.838325454751729e-6	3.718001823588189
0.0015	4.991651476761335e-6	4.06269196301966
0.0016	5.138200658019134e-6	4.397175113628295
0.0017	5.2774647354687425e-6	4.722489850309152
0.0018000000000000002	5.414695760692809e-6	5.0393964694355144
0.002	5.670521499073478e-6	5.650540622275441
0.0022500000000000003	5.968702492152931e-6	6.378253226576783
0.00249999	6.243164542601066e-6	7.0718314520616214
0.00274999	6.502378701357636e-6	7.736411671893993
0.00299999	6.744650758234693e-6	8.375828239800615
0.00324999	6.973369133608136e-6	8.993302784992574
0.00349999	7.190228037665922e-6	9.591358137583352
0.00374999	7.396921680595997e-6	10.172049654315614
0.00399999	7.593450062398366e-6	10.737122938370497
0.004499990000000001	7.962787883371778e-6	11.826051244305795
0.00499999	8.301629920962069e-6	12.867588236703389
0.005499990000000001	8.618447226108986e-6	13.868806415918407
0.00599999	8.916628219188442e-6	14.834904239012161
0.006499990000000001	9.19447869001248e-6	15.770278159658837
0.00699999	9.457081269144952e-6	16.67857072075672
0.00799999	9.945013803274967e-6	18.42465722543737
0.008999990000000001	0.000010390591082706196	20.090630307382984
0.00999999	0.000010798895738002494	21.689517343468548
0.0109999	0.000011178398820103617	23.230987367263918
0.0119999	0.000011530794539197518	24.72293906838392
0.0129999	0.000011862859736036	26.171270988288267
0.013999900000000001	0.000012176288620807018	27.580719619980574
0.0149999	0.000012472775403698518	28.955301239251835
0.0159999	0.000012754014294898458	30.298404930462258
0.016999900000000002	0.000013020005294406836	31.613015838399914
0.0179999	0.000013277525242975454	32.90147296770571
0.0199999	0.000013758680936353665	35.40753250925418
0.0224999	0.000014309299247437883	38.425044742749385
0.024999900000000002	0.000014814173883447413	41.33331298233855
0.0274999	0.000015281775895322013	44.14767947927282
0.0299999	0.000015717187913625533	46.8801119833619
0.0324999	0.00001612549256892183	49.54019768577939
0.0349999	0.00001651177249177476	52.135541930838
0.037499899999999996	0.000016876027682184316	54.6725439147431
0.0399999	0.00001721995235033846	57.15687902251011
0.044999899999999995	0.00001786375222176001	61.98519781416301
0.0499999	0.000018456725787543015	66.6491930135809
0.0549999	0.000019003955678251332	71.17133225688207
0.059999899999999995	0.000019515607155012666	75.5692732440395
0.0649999	0.000019996762848390877	79.85676120111349
0.0699999	0.000020450811178761863	84.04515928031006
0.0799999	0.00002129283364217373	92.16081507911085
0.0899999	0.000022062005067503684	99.97520273183574
0.0999999	0.000022771879136255337	107.53205680832887
0.11	0.000023434315319744354	114.86474969955525
0.12	0.000024057784668910482	121.99895079463988
0.13	0.00002464736981431758	128.9555507642388
0.13999899999999998	0.000025208153386529515	135.75100217942716
0.149999	0.000025741829595734214	142.40119411701252
0.159999	0.00002625348107249555	148.9177074520918
0.169999	0.00002674141360662557	155.311443208968
0.179999	0.000027222569300003774	161.5904285056378
0.199999	0.00002812727754036985	173.8314237558452
0.224999	0.00002917938206708769	188.61154654570072
0.249999	0.000030156941345535678	202.88696144190305
0.27499900000000005	0.00003109892221003668	216.71539009946812
0.299999	0.00003199007676889914	230.14159474865485
0.32499900000000004	0.0000328287108119351	243.2097206198569
0.349999	0.00003363515486139999	255.95490854399551
0.374999	0.00003442465680898536	268.4012243776091
0.39999900000000005	0.000035183662973187604	280.57044442739556
0.44999900000000004	0.000036618659002382484	304.1633856806192
0.499999	0.00003796047347124002	326.8793406664416
0.549999	0.00003925993268539878	348.81885443718505
0.5999990000000001	0.00004049670612260333	370.0600963842344
0.649999	0.000041674182203229576	390.67744244890247
0.699999	0.00004280591460878114	410.7315731629043
0.799999	0.00004497111522898309	449.3328985606549
0.899999	0.00004702280376659229	486.16441027571835
0.9999990000000001	0.00004895759180123283	521.4662133787564
1.1	0.00005080597511628786	555.4300922321702
1.2	0.00005256964792194531	588.2072618759526
1.3	0.00005427571758121242	619.9205031411786
1.4	0.00005592757251446506	650.6672047510497
1.5	0.00005752182430132738	680.5338464810634
1.6	0.00005905677873161138	709.5989564047401
1.7	0.000060549377907196604	737.9288712605426
1.8	0.0000620148697197746	765.5750936819694
2.	0.00006483234126233785	818.996982648163
2.25	0.00006767353174753243	882.8979549400412
2.5	0.00007035885489543545	944.266364316418
2.75	0.00007294760806262525	1003.3764311792197
3.	0.0000754059070453428	1060.475139086249
3.25	0.00007777780130847481	1115.7748157795888
3.5	0.00008008023295390083	1169.436143136809
3.75	0.00008227762356767385	1221.6101546912464
4.	0.00008441741103505651	1272.4275572433671
4.5	0.00008850554021858335	1370.3983962308093
5.	0.0000923869757591801	1464.0552221100338
5.5	0.00009610576712173352	1553.9371532827636
6.	0.00009969241008962673	1640.4659294636986
6.5	0.00010315876413417539	1723.9868263308715
7.	0.00010653871345913852	1804.7813806507713
8.	0.00011304448058087204	1959.1015580147987
9.	0.00011928086828272131	2104.956836872717
10.	0.00012525465340543812	2243.5258142185085
11.	0.00013097938963052604	2375.7676344872702
12.	0.00013650082063305978	2502.447474966306
13.	0.00014178336799909236	2624.20811504839
14.	0.00014688971750557802	2741.5858585867245
15.	0.00015176904284687818	2855.0381923989703
16.	0.000156485724010135	2964.9588753088397
17.	0.0001610075710017774	3071.6797206499446
18.	0.0001653484763453466	3175.5022343536916
20.	0.00017350321824301324	3375.4670607942876
22.5	0.0001830416216011799	3613.0163325377534
25.	0.0001915823045796619	3839.0849192601786
27.5	0.00019929062209280338	4055.772928428224
30.	0.00020650219717883748	4264.4908425128515
32.5	0.0002128759853269296	4466.4501684380475
35.	0.0002189182165412396	4662.607635780574
37.5	0.00022428920167908328	4853.7054069312
40.	0.00022915700639110533	5040.494371088831
45.	0.00023754995424119798	5403.329632841879
50.	0.0002444311583405816	5754.699869472434
55.	0.00025013641114850807	6097.1334307192865
60.	0.000254494089172938	6432.753267615183
65.	0.0002580107612600688	6763.242486955154
70.	0.00026068541088378774	7089.787838032631
80.	0.00026367450591839044	7735.428773246807
90.	0.0002644726483379344	8376.604598788586
100.	0.00026358522104148545	9017.974040150895
110.	0.0002613486941723707	9663.24817706206
120.	0.00025826997541882534	10315.212568894072
130.	0.0002546870597133457	10975.681124854096
140.	0.00025059893052981877	11646.197283752923
150.	0.0002461745006239836	12328.262806994855
160.	0.00024175227319139277	13022.714828973045
170.	0.00023716248837121352	13730.23661063911
180.	0.00023257405891918465	14451.61559776905
200.	0.00022373993873614942	15937.298849904057
225.	0.0002132109306810876	17876.80851452396
250.	0.0002033641810687138	19911.3797200776
275.	0.00019453717656846801	22041.419521836135
300.	0.0001863903974586847	24266.216355364097
325.	0.0001789233354763075	26586.10146024465
350.	0.00017213565177929884	29000.170245698802
375.	0.00016600987906062096	31506.275133777457
400.	0.00016032573611163633	34102.92719272808
450.	0.00015024765904019966	39564.64390384736
500.	0.00014159534455243352	45375.837142882294
550.	0.0001340970582762924	51526.49345333864
600.	0.00012751513640661043	58007.3299801015
650.	0.00012167985296675868	64810.47146486986
700.	0.00011648930121393182	71928.0405879066
800.	0.00010765209756835456	87074.23043978697
900.	0.00010039261021820517	103386.00384946984
1000.	0.00009433755383277237	120807.3793584975