# E_R [keV]  \xi_T*d_E/dx_T [keV/Å]  x_T [Å]
0.0011	0.00018899988615506146	1.0305745418734995
0.0012	0.00019918599939592485	1.1265735374372474
0.0013000000000000002	0.00020978551613577752	1.2176601697252012
0.0014	0.00021996045630910064	1.3043300898340193
0.0015	0.00022994172997839273	1.3871187364305597
0.0016	0.00023969954229687975	1.4664265246667292
0.0017	0.0002492711368230292	1.5425957902756726
0.0018000000000000002	0.0002584330522060361	1.6159531565622343
0.002	0.00027634720382890734	1.755290597020422
0.0022500000000000003	0.0002978367370646593	1.917477339913495
0.00249999	0.0003183020724425548	2.0686101166174273
0.00274999	0.0003381528891057364	2.2104604655497875
0.00299999	0.0003570167514695291	2.3444048551487455
0.00324999	0.0003752847168978416	2.4715619906081896
0.00349999	0.0003931243814037779	2.5927413099142873
0.00374999	0.00041036814897423387	2.7086250062769093
0.00399999	0.00042701601960920977	2.81981880766564
0.004499990000000001	0.0004593061848005391	3.0299564363464855
0.00499999	0.0004899948769777654	3.226139718843168
0.005499990000000001	0.0005194917752840316	3.410623465664326
0.00599999	0.0005477782579401037	3.585112340042568
0.006499990000000001	0.0005748915685044493	3.750992822801333
0.00699999	0.0006013717385748474	3.9093159915279188
0.00799999	0.0006515760553890477	4.206591479724023
0.008999990000000001	0.0006990057270974188	4.4823796224683194
0.00999999	0.000744238028856207	4.740453521206785
0.0109999	0.0007872915824446459	4.983624503689784
0.0119999	0.0008287436630189819	5.21409750232074
0.0129999	0.0008684266745661115	5.4335486021274155
0.013999900000000001	0.0009067316744499432	5.6433598206541635
0.0149999	0.0009438262586835808	5.844619330271282
0.0159999	0.0009795614530331545	6.038258534295153
0.016999900000000002	0.001014477289096443	6.225036576588994
0.0179999	0.001048219953068005	6.405594892318413
0.0199999	0.0011131540972561047	6.750253802280371
0.0224999	0.0011899130712576382	7.154552481805593
0.024999900000000002	0.0012625193884900445	7.534223564719444
0.0274999	0.0013315875676680373	7.893153825842883
0.0299999	0.0013973224483631885	8.234350628712141
0.0324999	0.0014602826839525105	8.560182932932692
0.0349999	0.0015208779535791455	8.872509137090447
0.037499899999999996	0.0015791268790223275	9.172860410323846
0.0399999	0.0016354018958667318	9.462511346165797
0.044999899999999995	0.0017424398829023488	10.013797859576414
0.0499999	0.0018430161125438536	10.533161687321751
0.0549999	0.0019382665133245048	11.025625448656736
0.059999899999999995	0.002028433168374341	11.495077432386921
0.0649999	0.0021154154991752053	11.944446068315468
0.0699999	0.002196606456634372	12.376281215102548
0.0799999	0.002352917671522502	13.19494298641853
0.0899999	0.0024975157872726005	13.962726509669007
0.0999999	0.002632318847145745	14.688682197010529
0.11	0.0027574013382588693	15.37967695951848
0.12	0.0028784429032782696	16.040496867578934
0.13	0.002991700564577961	16.67490959963945
0.13999899999999998	0.0030990365000813187	17.286309088263156
0.149999	0.00320257359262099	17.87731703523918
0.159999	0.003302013893729235	18.449877987757432
0.169999	0.00339772983899073	19.005757008103753
0.179999	0.003489348992820799	19.546510904317905
0.199999	0.0036610417973560096	20.58807034167791
0.224999	0.0038610397063265265	21.825753131565875
0.249999	0.004047071280871727	23.00301323233653
0.27499900000000005	0.004219508956576288	24.12923918627336
0.299999	0.004382077089286959	25.211605522834066
0.32499900000000004	0.004533099718872703	26.255919047246195
0.349999	0.004677977161311307	27.26669389764745
0.374999	0.004813171278548362	28.247633157289762
0.39999900000000005	0.004942406426430613	29.20201341944407
0.44999900000000004	0.005185234427638763	31.040434363163392
0.499999	0.005406461164935759	32.79829808013562
0.549999	0.005610183429753026	34.488419630254135
0.5999990000000001	0.0057999393601449786	36.1203039784739
0.649999	0.005977963569619665	37.70123752336815
0.699999	0.00614406984038475	39.23729627022385
0.799999	0.0064487221486489625	42.194076421908676
0.899999	0.006723765827931508	45.02083956707397
0.9999990000000001	0.0069712492739480965	47.73981635485461
1.1	0.0071969452382611935	50.36815399562112
1.2	0.007406626472433262	52.918143653356815
1.3	0.007598617016333264	55.399907144804075
1.4	0.007778689621523663	57.82166010332705
1.5	0.007944795892288747	60.190130207002696
1.6	0.00810289479798332	62.510770096832985
1.7	0.008249075764968286	64.78824002055804
1.8	0.008389111544806115	67.0265789600165
2.	0.008645533444854907	71.39809621787902
2.25	0.008930819102716018	76.69415227493165
2.5	0.009183889082502731	81.83306965886017
2.75	0.009410888571362191	86.83949668756789
3.	0.009615728142933483	91.73246838432267
3.25	0.009803994330986734	96.52645949203988
3.5	0.009974197393183245	101.23362822037826
3.75	0.010132110081085478	105.86408191376836
4.	0.010277732394693432	110.42568111967344
4.5	0.010536202690457935	119.37010270811341
5.	0.010761712436978696	128.11184709352878
5.5	0.010960034385818175	136.68331165885687
6.	0.011135451546200135	145.110028815755
6.5	0.011292060709556004	153.4121570274747
7.	0.01143172405380916	161.6061634080212
8.	0.011671013916962897	177.72185677770847
9.	0.011867287470086663	193.54062750030292
10.	0.012032835087474734	209.12078001544933
11.	0.012172125996143214	224.50513120747917
12.	0.012289256987523527	239.7286219392209
13.	0.012388511070839433	254.81907567189054
14.	0.012474729908691714	269.7972582762645
15.	0.01254921702562673	284.67933422611355
16.	0.012612531075021494	299.48011038340906
17.	0.012668396412722754	314.21129076350024
18.	0.012716813038730514	328.8819750138075
20.	0.012793162333588903	358.0763012033979
22.5	0.012863925094677169	394.3600197644473
25.	0.012910479542761553	430.48004950361826
27.5	0.012942136567458936	466.49209554219163
30.	0.01296075834669269	502.4350961143641
32.5	0.01297193141423294	538.337443972173
35.	0.012975655770079694	574.2193926168693
37.5	0.012973793592156318	610.0991953480366
40.	0.01296820705838619	645.9896224368711
45.	0.012949585279152437	717.8352530907977
50.	0.012925376966148556	789.8014500524068
55.	0.012897444297297923	861.9142627002678
60.	0.012869511628447296	934.1829858335631
65.	0.012835992425826538	1006.618799879581
70.	0.012778264910201903	1079.3133746720746
80.	0.012675845124416255	1225.645633469274
90.	0.012586460584094235	1373.0872270150387
100.	0.01251197346715922	1521.4895589193522
110.	0.012446797239841082	1670.7213569571168
120.	0.01239465625798657	1820.6597279042553
130.	0.012355550521595688	1971.1498863148163
140.	0.01232761785274506	2122.0487420024974
150.	0.012312720429358057	2273.208914624729
160.	0.01230713389558793	2424.4938941672635
170.	0.012312720429358057	2575.7788737097985
180.	0.01232761785274506	2726.9369043449437
200.	0.012383483190446319	3028.4373846270714
225.	0.012498938221695595	3402.7513430197077
250.	0.012655361167259127	3773.0007970209044
275.	0.012847165493366793	4138.1799962708355
300.	0.013066902488325087	4497.547521163274
325.	0.01331084779628726	4850.588068852782
350.	0.013573414883483192	5196.9694144478
375.	0.013852741571989497	5536.503224711843
400.	0.01414696568388281	5869.074684166861
450.	0.014757760042749937	6513.528211065092
500.	0.015398349248391069	7131.206975544609
550.	0.01605197369949583	7723.4316136107445
600.	0.016716771218140844	8291.80716169194
650.	0.01738343091470923	8837.969237941015
700.	0.018050090611277624	9363.567402506504
800.	0.019366650403104018	10359.244313939746
900.	0.02065713970400316	11289.987058915432
1000.	0.021914109802281548	12164.966237575547