# E_R [keV]  \xi_T*d_E/dx_T [keV/Å]  x_T [Å]
0.0011	0.00009786181774320006	1.2137359963927534
0.0012	0.00010260121826186602	1.3269160733152003
0.0013000000000000002	0.0001075526445932091	1.434842344549811
0.0014	0.00011233172908750983	1.5379754619793826
0.0015	0.0001169611483022737	1.636875602323843
0.0016	0.00012143183161449855	1.7319999161416093
0.0017	0.00012577779386044267	1.8237305049288968
0.0018000000000000002	0.0001299593510644714	1.9124026993834762
0.002	0.00013816826488149088	2.081605075810281
0.0022500000000000003	0.0001477491104275979	2.279884634789826
0.00249999	0.00015683107170858215	2.466018084102403
0.00274999	0.00016555020806947713	2.641873812225494
0.00299999	0.0001737704601652494	2.8089489773255507
0.00324999	0.0001817412701284603	2.9684174521217237
0.00349999	0.00018936059345033473	3.121179078548081
0.00374999	0.00019660575357336712	3.268062193639512
0.00399999	0.00020372619263011883	3.4096781577020314
0.004499990000000001	0.00021724142090344373	3.679015357557949
0.00499999	0.00023000832277908455	3.9325262718506018
0.005499990000000001	0.00024206091309329956	4.172704273473645
0.00599999	0.0002534898980761113	4.401504053401216
0.006499990000000001	0.00026444267535130574	4.620416535010048
0.00699999	0.0002748965683613775	4.830639124064351
0.00799999	0.0002947158796212533	5.228735301463256
0.008999990000000001	0.0003130725529220192	5.601817736420071
0.00999999	0.00033034075146251736	5.954244100058784
0.0109999	0.00034650913696399494	6.2892327101295145
0.0119999	0.00036194053434654124	6.609311022671377
0.0129999	0.00037653289910138113	6.916374122963802
0.013999900000000001	0.0003905129968035704	7.211998850545832
0.0149999	0.0004037674446655811	7.4974867838234935
0.0159999	0.00041652300826246913	7.773927146554539
0.016999900000000002	0.00042880236415174	8.04217886365823
0.0179999	0.00044059417405464086	8.303003752278222
0.0199999	0.0004630779808214222	8.804869643178211
0.0224999	0.0004890993305590737	9.400187202794399
0.024999900000000002	0.0005132952174175261	9.96569094819077
0.0274999	0.0005357903624630602	10.506036327834419
0.0299999	0.0005570496351245403	11.024753792175463
0.0324999	0.0005769936674506966	11.524625780376157
0.0349999	0.0005959512695253604	12.00792618279852
0.037499899999999996	0.0006139451179060372	12.476462202218935
0.0399999	0.0006309638743139739	12.931824393357074
0.044999899999999995	0.0006630512031843678	13.807915873887824
0.0499999	0.0006924513599903505	14.64426579955836
0.0549999	0.0007197879500633256	15.4470389377359
0.059999899999999995	0.000745276400699596	16.220871249861574
0.0649999	0.0007690754478017008	16.969524110764628
0.0699999	0.000791400518665943	17.696060021821978
0.0799999	0.0008326265002110851	19.09205197286577
0.0899999	0.0008698047162414813	20.4237941302084
0.0999999	0.0009036721548760629	21.702230753889484
0.11	0.0009347163621012004	22.93556745370004
0.12	0.0009633115011157349	24.130174364114936
0.13	0.0009900358241360593	25.290970906568884
0.13999899999999998	0.001014923345998432	26.42177730284054
0.149999	0.0010382008322779087	27.52618164001389
0.159999	0.0010601177251070503	28.606810392989964
0.169999	0.0010807874072733853	29.665951690853053
0.179999	0.0011003799529582055	30.70554744145797
0.199999	0.0011364356793920752	32.73267810968768
0.224999	0.001177140100114589	35.18248980513584
0.249999	0.001213422592123515	37.55350099456142
0.27499900000000005	0.001246416983294132	39.85781318769171
0.299999	0.001276236656413968	42.10480580267828
0.32499900000000004	0.0013037886737832462	44.3018787271336
0.349999	0.0013289596526144384	46.454997642223084
0.374999	0.001352656655207768	48.56887502229444
0.39999900000000005	0.001373972619263012	50.647841965097605
0.44999900000000004	0.0014127495325975516	54.715636114481605
0.499999	0.0014474446655810868	58.679091039920735
0.549999	0.001478398166576202	62.553602826587145
0.5999990000000001	0.0015053832700078402	66.3531102174544
0.649999	0.0015310077799891445	70.08679466327213
0.699999	0.0015527772751944998	73.7630164299732
0.799999	0.001592234485254207	80.97162365195476
0.899999	0.0016261359387250468	88.01589455688914
0.9999990000000001	0.001654821783969604	94.92598529590293
1.1	0.001679312466075629	101.72631365402789
1.2	0.0017009685784934567	108.43396964395782
1.3	0.0017199035040106148	115.0622235720167
1.4	0.0017372510705023823	121.62091018139265
1.5	0.0017518774500934805	128.11965914632353
1.6	0.0017660502985344672	134.56524273387438
1.7	0.0017777287256498403	140.9638154215012
1.8	0.0017890670044026298	147.3213475039829
2.	0.0018087956094324834	159.92400157053999
2.25	0.0018273903865870579	175.51169938627228
2.5	0.0018437175079910745	190.95239891681734
2.75	0.0018566431457692541	206.27104940351592
3.	0.0018674145105844037	221.49275733121237
3.25	0.0018763717507991077	236.63432175752348
3.5	0.0018834014836258371	251.7119133414675
3.75	0.0018898643025149272	266.7360417374357
4.	0.0018957602074663772	281.711026943678
4.5	0.001904717447681081	311.540991645247
5.	0.0019118605632953384	341.24693776053863
5.5	0.0019176430854592609	370.85356241002603
6.	0.0019230854592606	400.37387745839686
6.5	0.0019275073879741877	429.81885275154485
7.	0.0019320426994753036	459.1958898195611
8.	0.0019394125806646166	517.7655729289701
9.	0.001946102165128762	576.127840576451
10.	0.001953812194680659	634.2756214994074
11.	0.0019616356070200833	692.191874488828
12.	0.0019697991677220922	749.8731724717762
13.	0.0019785296423617395	807.307671287111
14.	0.001987600265363971	864.4842532968114
15.	0.0019971244195163143	921.3941596463616
16.	0.0020071021048187684	978.026901030468
17.	0.002017533321271335	1034.3724622869934
18.	0.002028418068874013	1090.4209766736412
20.	0.0020508678608045353	1201.6032154701036
22.5	0.0020849960798504314	1338.7469304861306
25.	0.00213783245883843	1473.0465183904319
27.5	0.0021880610337132863	1604.0919639587637
30.	0.002236248718412641	1732.2189404760516
32.5	0.0022805813883360476	1857.7210351975255
35.	0.0023229865508714795	1980.8618108651924
37.5	0.002363124057656354	2101.8317802461897
40.	0.002400653760328087	2220.8297403453184
45.	0.002470270791870213	2453.566440325111
50.	0.002533878535673362	2680.1151181456535
55.	0.0025926108196128103	2901.2613972323184
60.	0.002646807792051143	3117.647119401237
65.	0.002698170194801279	3329.7663416526907
70.	0.002747264941800856	3537.972842345538
80.	0.0028375176406730596	3943.9461676426067
90.	0.0029222145829563965	4337.625596743291
100.	0.0030023762137386173	4720.358751143886
110.	0.003079022978107473	5093.2409202918925
120.	0.003154989445751161	5457.005519762457
130.	0.0032298220855195713	5812.177981260037
140.	0.0033040878113503413	6159.246945879035
150.	0.0033776732404559437	6498.643007876324
160.	0.0034525058802243537	6830.670793247453
170.	0.0035283589650805143	7155.5215104828385
180.	0.003602964839273868	7473.5145579916025
200.	0.003754330860623606	8090.133669059982
225.	0.003944700560882938	8826.643530810306
250.	0.004135637175079911	9528.357928500645
275.	0.004324192750738798	10198.56721895052
300.	0.004511160967372294	10840.282987177008
325.	0.004695974911042761	11456.067340312631
350.	0.004877273988299862	12048.293259462958
375.	0.005056192027018878	12619.036250233246
400.	0.0052312550509619445	13170.130922615317
450.	0.005571970327483265	14219.793249449074
500.	0.005898614800072373	15208.3212681935
550.	0.006210802967251675	16144.674051619175
600.	0.00651048501296665	17035.975474473624
650.	0.006797434171642241	17887.965511438502
700.	0.007071457692539655	18705.48590013579
800.	0.007587122610216515	20252.350687504564
900.	0.008060166938061638	21701.39836861216
1000.	0.008494695132983536	23070.992460207264