# E_R [keV]  \xi_T*d_E/dx_T [keV/Å]  x_T [Å]
0.0011	0.0006882108524948672	1.0911624102283408
0.0012	0.0007231569982929652	1.192279488926621
0.0013000000000000002	0.0007594724624570293	1.2885040101633947
0.0014	0.0007943401577237437	1.3803086997149414
0.0015	0.0008288298640665196	1.4681892259222629
0.0016	0.0008618147465800302	1.5525591585821363
0.0017	0.0008940507831121532	1.633796869450003
0.0018000000000000002	0.0009254309956655473	1.7121926591602614
0.002	0.000985267355511678	1.86149150667889
0.0022500000000000003	0.001057227888389802	2.0361018774405726
0.00249999	0.00112540853202854	2.199483115499656
0.00274999	0.0011905224730768325	2.3534673158121966
0.00299999	0.0012532115795187268	2.499393865658548
0.00324999	0.0013129053020350691	2.6383608695543805
0.00349999	0.0013711013325886363	2.771224402839149
0.00374999	0.001426943847200699	2.898670163344712
0.00399999	0.0014812173511850916	3.021291642431395
0.004499990000000001	0.0015851999646006565	3.2538837904908204
0.00499999	0.0016831204915002244	3.472101918427409
0.005499990000000001	0.001776476623846572	3.6782571280249643
0.00599999	0.0018659102296237449	3.874063983646277
0.006499990000000001	0.0019515639461615318	4.060889013805316
0.00699999	0.0020341509601088732	4.239827437488487
0.00799999	0.0021901961988971146	4.57748621821054
0.008999990000000001	0.0023363281432650785	4.892599714936943
0.00999999	0.002473331298526601	5.189165832020636
0.0109999	0.0026042010486072333	5.470061550902967
0.0119999	0.0027282242068580338	5.737549578728075
0.0129999	0.0028469697839066718	5.993390447075502
0.013999900000000001	0.002960366461088255	6.239002480570605
0.0149999	0.003069198743716617	6.475564096318916
0.0159999	0.0031742511371055933	6.704023933685265
0.016999900000000002	0.003276236827904124	6.925147191398985
0.0179999	0.0033737294428143275	7.139635546103678
0.0199999	0.0035609409381612803	7.5510449424699075
0.0224999	0.0037798892393860976	8.036783343133946
0.024999900000000002	0.003984431170302311	8.496030234064259
0.0274999	0.004176777609521638	8.932946529085825
0.0299999	0.004358568886336641	9.350713649289752
0.0324999	0.004531231374045202	9.751824751776502
0.0349999	0.004695549577961156	10.13828924466061
0.037499899999999996	0.004853092508712173	10.511725441073642
0.0399999	0.005003004342319524	10.87351172866782
0.044999899999999995	0.005286923947262845	11.566541373217202
0.0499999	0.005549590590067733	12.224611446453341
0.0549999	0.005795639983952299	12.853188861086068
0.059999899999999995	0.006027211688863368	13.456373802314184
0.0649999	0.006245161528779668	14.037465114130606
0.0699999	0.0064509871956639755	14.599167175725785
0.0799999	0.006834538975464323	15.672608219857668
0.0899999	0.007183929114780407	16.689942865848113
0.0999999	0.007506004205442062	17.66078919893299
0.11	0.0078016200714280115	18.592524987480083
0.12	0.008085254401711756	19.490289594674838
0.13	0.008346423352553867	20.358228743158126
0.13999899999999998	0.008585269561284132	21.200531887118704
0.149999	0.008823188627370774	22.01984881535643
0.159999	0.009038927588675357	22.81832368412364
0.169999	0.009247178090166064	23.5983315748216
0.179999	0.00944687035186948	24.36130866282117
0.199999	0.009817014222669743	25.84183935931787
0.224999	0.010237081158895859	27.619622315035
0.249999	0.010619349202728112	29.329098456757805
0.27499900000000005	0.010970950220655914	30.98048577438322
0.299999	0.011291171026030321	32.58206521535817
0.32499900000000004	0.011588569858638624	34.14045287082949
0.349999	0.01186385990512976	35.66081089793208
0.374999	0.012122746658695263	37.14733802611863
0.39999900000000005	0.012365943305984065	38.60339616914144
0.44999900000000004	0.012813824521518873	41.43514950981882
0.499999	0.013215348604872524	44.17451122072661
0.549999	0.013571228742693975	46.836560555811815
0.5999990000000001	0.01390214734780249	49.43216742441431
0.649999	0.014202398927006556	51.96947633251802
0.699999	0.014479115346795576	54.45580011394042
0.799999	0.014969787761266829	59.29780719045759
0.899999	0.015404118430471759	63.992733291513574
0.9999990000000001	0.015782820541059308	68.565327031506
1.1	0.01611445233281677	73.03637156366501
1.2	0.016413277538722952	77.42095339692005
1.3	0.01668785439856515	81.7295787165644
1.4	0.016930337859205013	85.97199603786981
1.5	0.0171557048402703	90.15626690938508
1.6	0.017357536661920536	94.28881569235553
1.7	0.017550097057134544	98.37467299102263
1.8	0.017719122292933508	102.41860208806368
2.	0.018030071671871685	110.39842681658206
2.25	0.0183574243437355	120.19588377111843
2.5	0.018634140763524522	129.83402916426095
2.75	0.01887448466421756	139.3396367845464
3.	0.01908059560576144	148.73345790190413
3.25	0.019252473588156172	158.03495155583587
3.5	0.019405808717678434	167.2584897112993
3.75	0.019539887807679304	176.41409263211327
4.	0.019662555911297116	185.50983079922088
4.5	0.019862961359649472	203.54949892962918
5.	0.0200155833025228	221.43057019125976
5.5	0.02013611184619379	239.19116679993476
6.	0.02024095028358808	256.85273237942874
6.5	0.020316548068375805	274.43604608331805
7.	0.020385727173323057	291.95744456388945
8.	0.020483433744227945	326.8519434274542
9.	0.020547620542632615	361.6111054375474
10.	0.020586845808324355	396.2842279081133
11.	0.020611807341037285	430.9047265698008
12.	0.020631776567207622	465.4882073029846
13.	0.020647466673484324	500.0414641975269
14.	0.02065317216667585	534.5770684580656
15.	0.020658164473218433	569.1047727869739
16.	0.020668149086303607	603.6198155632155
17.	0.020675280952793012	638.1197253528431
18.	0.020675280952793012	672.6141307921228
20.	0.020696676552261237	741.5836178944147
22.5	0.02071807215172946	827.6889433034335
25.	0.020760863350665907	913.6636403335377
27.5	0.02081078641609176	999.4441407957972
30.	0.020867841348007024	1085.0117915516607
32.5	0.020974819345348138	1170.2574123333857
35.	0.021167379740562143	1254.8782832707711
37.5	0.02129575333737149	1338.8368955594872
40.	0.02137420386875497	1422.3945934116596
45.	0.02147404999960668	1588.8008554984892
50.	0.02153823679801135	1754.599503616541
55.	0.021602423596416016	1919.9207610406993
60.	0.021680874127799503	2084.701783070794
65.	0.021773588392161803	2248.838264169348
70.	0.021894830122481737	2412.171213573926
80.	0.022172972915568634	2735.9188421527883
90.	0.022515302507060207	3055.1695602863715
100.	0.02289685736424352	3369.3097988197687
110.	0.02330480012743764	3678.069790060982
120.	0.02372985937020634	3981.356487282099
130.	0.024172035092549622	4279.142790458539
140.	0.02461278444159502	4571.5380667335685
150.	0.025068510710268176	4858.653917722645
160.	0.02551567873915404	5140.64131799995
170.	0.025971405007827197	5417.687564931238
180.	0.02642713127650035	5689.9108318053795
200.	0.027340010187144537	6220.540856791673
225.	0.028478969265502953	6859.4690968278965
250.	0.029621494277106076	7473.304352384326
275.	0.03076401928870919	8063.908565088589
300.	0.03191367616680172	8632.904720549945
325.	0.03305691436505378	9181.808790063524
350.	0.034198013003359014	9712.070183225702
375.	0.03533982482831319	10224.920576321705
400.	0.036480210279969484	10721.469281357591
450.	0.03875028338354797	11669.726895405365
500.	0.041003240007551865	12564.176612961806
550.	0.043244785645172715	13410.886540111249
600.	0.045471354363165815	14214.931135077462
650.	0.04768437253482903	14980.635224385182
700.	0.04987385554707721	15711.766832664674
800.	0.05419077433311571	17083.025652544235
900.	0.05841640522808979	18350.11474856955
1000.	0.06253434493907381	19529.683276488915