# E_R [keV]  \xi_T*d_E/dx_T [keV/Å]  x_T [Å]
0.0011	0.0000721414286634307	1.0256493400710993
0.0012	0.00007606730017054469	1.112538041129313
0.0013000000000000002	0.00008008263006118143	1.194985891922875
0.0014	0.00008396087624181565	1.2734573885914404
0.0015	0.00008776704084723731	1.3484162241317676
0.0016	0.00009143805249913537	1.4202439623315732
0.0017	0.0000949745547830028	1.4892975332984104
0.0018000000000000002	0.0000985071955539124	1.5558295588636502
0.002	0.00010529702250474068	1.6821347868438914
0.0022500000000000003	0.00011337402044150797	1.8293146110580958
0.00249999	0.00012110348221207171	1.966563482965154
0.00274999	0.00012849184367136164	2.095500598694867
0.00299999	0.00013560989922360437	2.217353559507273
0.00324999	0.00014245764886879986	2.333087104404301
0.00349999	0.00014915737385061246	2.443442026481883
0.00374999	0.00015559322878030748	2.549036317418058
0.00399999	0.00016182313635225228	2.6504184918327764
0.004499990000000001	0.00017387105678064142	2.8421664446653896
0.00499999	0.00018537192954000647	3.0213326731879477
0.005499990000000001	0.00019632575463034746	3.189955208239886
0.00599999	0.00020687412086011763	3.34958434865624
0.006499990000000001	0.000217017028229317	3.5014171363901014
0.00699999	0.00022675447673794563	3.6464473191118665
0.00799999	0.0002454055843242019	3.9190998829643218
0.008999990000000001	0.00026303982683156634	4.172278123639398
0.00999999	0.00027972799866426556	4.409438400713646
0.0109999	0.00029560525277582333	4.633154918721206
0.0119999	0.0003108646648141302	4.845402202429382
0.0129999	0.00032546118379467857	5.047689064763791
0.013999900000000001	0.00033957501365549985	5.241242325307619
0.0149999	0.0003531482317022267	5.427056682925135
0.0159999	0.0003662516323390858	5.605982542773809
0.016999900000000002	0.0003790139326646711	5.778698199518264
0.0179999	0.0003913772099846153	5.9457791236859485
0.0199999	0.0004150868995456118	6.265003016783935
0.0224999	0.0004430506892151368	6.639998286984897
0.024999900000000002	0.00046939907929730837	6.992669955115872
0.0274999	0.0004944023756991735	7.326551622992217
0.0299999	0.0005182600899235532	7.6443195224649765
0.0324999	0.000540972221970447	7.948115854530844
0.0349999	0.0005628090777469023	8.239652055203546
0.037499899999999996	0.000583770657252919	8.520303546034315
0.0399999	0.0006039277548927238	8.7912392386659
0.044999899999999995	0.0006422854502737064	9.307655169952174
0.0499999	0.0006780366244081624	9.795081689216053
0.0549999	0.0007118956571932881	10.258116731191953
0.059999899999999995	0.000744396724588248	10.700039630513478
0.0649999	0.0007749026769550025	11.123625529219233
0.0699999	0.0008040570997865211	11.531218345856136
0.0799999	0.0008589999933213278	12.305125116883112
0.0899999	0.0009092704561771757	13.032993908391209
0.0999999	0.0009568185523977627	13.722726074453584
0.11	0.0010010328757647678	14.38011658425946
0.12	0.0010425634476260899	15.009938239274636
0.13	0.0010820731610394878	15.615728155369583
0.13999899999999998	0.0011189248663669217	16.200461855474252
0.149999	0.0011550557559422297	16.766482892016803
0.159999	0.0011885479449963627	17.315682220706794
0.169999	0.0012213386258631592	17.849798747288652
0.179999	0.001252803520614438	18.370029460881234
0.199999	0.0013116915932211478	19.373691320681672
0.224999	0.0013795898627294307	20.56919335944731
0.249999	0.0014420820140967695	21.70947241397272
0.27499900000000005	0.001499875991365431	22.803168491188245
0.299999	0.001554323324070651	23.856695268136495
0.32499900000000004	0.00160542401221243	24.875015485025774
0.349999	0.0016531136972414702	25.86247046584247
0.374999	0.0016981646817493356	26.822609719833896
0.39999900000000005	0.001740512607186729	27.7583535918407
0.44999900000000004	0.0018198023399205716	29.565722305933814
0.499999	0.0018923344249782352	31.299175260646745
0.549999	0.001958752447852688	32.970128758722005
0.5999990000000001	0.0020204722966284633	34.58730426282235
0.649999	0.0020774939713055617	36.1576258219302
0.699999	0.002130461057376952	37.686935369051675
0.799999	0.002227513749716753	40.63973173394892
0.899999	0.0023137542057746667	43.473438316660406
0.9999990000000001	0.0023911775405788985	46.20868725894797
1.1	0.0024611352836646835	48.86100397308088
1.2	0.0025256225500602278	51.44185408161453
1.3	0.0025846393397655314	53.960368668053185
1.4	0.00263953718231583	56.42400908255771
1.5	0.002690316077711124	58.83879498932945
1.6	0.0027370403845007095	61.21026377488414
1.7	0.002781640859163497	63.54251066221125
1.8	0.0028228946892628424	65.8390094451501
2.	0.002898451626137462	70.33786446728145
2.25	0.0029817959474770124	75.80889529024576
2.5	0.003054778542379755	81.13849936408064
2.75	0.0031194588844231895	86.34947933374062
3.	0.0031771885031425546	91.45931038225972
3.25	0.003229254569523787	96.48168628952516
3.5	0.003276429386158452	101.4275262725429
3.75	0.003319356538539518	106.30583826989813
4.	0.003358100385216282	111.12453950431944
4.5	0.0034269640329640193	120.60759476538296
5.	0.003485208520077759	129.91655557555342
5.5	0.003534828961585708	139.08289795176495
6.	0.0035779491896146655	148.13000563781557
6.5	0.0036152771482068965	157.0761233692111
7.	0.003648100008348341	165.93600413856197
8.	0.003701968114109889	183.44314597397562
9.	0.0037445091151951724	200.72488787243316
10.	0.0037772676167873204	217.83439190573685
11.	0.003802946677956804	234.8128898680612
12.	0.0038237344893797187	251.68836148047552
13.	0.00383975976815466	268.48291261685495
14.	0.0038517304583238926	285.2167021754871
15.	0.003860998089422653	301.904677216215
16.	0.0038676913785495363	318.5583373704253
17.	0.003872518269746808	335.18748667022885
18.	0.003876315424155327	351.7981628602901
20.	0.0038782461806342364	384.98932838422365
22.5	0.003876315424155327	426.4821111927178
25.	0.0038692359837326634	468.02416350318697
27.5	0.003859582201338121	509.65789191393145
30.	0.003848641247957639	551.4037297710227
32.5	0.0038370567090841878	593.2719185954677
35.	0.003824184999224798	635.2740583542679
37.5	0.003811313289365408	677.4184003669725
40.	0.003798441579506018	719.7054638996017
45.	0.003773985330773176	804.6988178135208
50.	0.003750172667533305	890.2386451313673
55.	0.0037295779317582803	976.2942990316643
60.	0.00371799339288483	1062.7223015836644
65.	0.003710270366969195	1149.3686856330585
70.	0.0037051216830254396	1236.163110678253
80.	0.0036980422426027746	1410.0439505098498
90.	0.0036928935586590184	1584.2094362214705
100.	0.0036909628021801104	1758.5431586202862
110.	0.00369160638767308	1932.9047414984516
120.	0.0036941807296449573	2107.190359132403
130.	0.003699329413588713	2281.2951984909387
140.	0.003707052439504348	2455.0962162081355
150.	0.0037167062218988905	2628.4916839764996
160.	0.0037295779317582803	2801.3626647414926
170.	0.0037443803980965785	2973.591092372156
180.	0.003761113620913787	3145.0968189649416
200.	0.0038023030924638343	3485.5546860984127
225.	0.0038640872997889072	3905.4108910873783
250.	0.003936812460494462	4318.018016005927
275.	0.004018547818101588	4722.601196131187
300.	0.004108006201624349	5118.651581369043
325.	0.004203900440076806	5505.865460577294
350.	0.004306230533458957	5884.050855799649
375.	0.004412422139798924	6253.181764458369
400.	0.004522475259096711	6613.375932320554
450.	0.004750948109100885	7307.652463476155
500.	0.004987787570513662	7968.710491888471
550.	0.005229775715870196	8598.746318683385
600.	0.005473694617705639	9200.158281592197
650.	0.00572018786151296	9775.203487957988
700.	0.00596603751982731	10325.999253617247
800.	0.006453875323498194	11362.82686798616
900.	0.006934569328197118	12324.522728856042
1000.	0.007402005471740867	13222.494086329538