# E_R [keV]  \xi_T*d_E/dx_T [keV/Å]  x_T [Å]
0.0011	0.000047019987692160906	0.9972672088354166
0.0012	0.00004944432906772889	1.0912733560978949
0.0013000000000000002	0.00005198059797970162	1.1806496919281937
0.0014	0.00005442306527209628	1.265830010407574
0.0015	0.000056811154814010904	1.3473100371997033
0.0016	0.00005910861477179216	1.4254951466644283
0.0017	0.00006135169697909338	1.5007344714869655
0.0018000000000000002	0.00006354493291512124	1.5733008337805034
0.002	0.00006778639745256354	1.7113321991449086
0.0022500000000000003	0.00007280274493434629	1.8725107863653718
0.00249999	0.00007761970733103556	2.0231446997818763
0.00274999	0.00008219650132977138	2.1649261970884015
0.00299999	0.00008662375651468713	2.2991443399195615
0.00324999	0.00009085615809371611	2.4268096403815935
0.00349999	0.000094939020858925	2.548764125928078
0.00374999	0.00009892672256079381	2.665639907268913
0.00399999	0.00010276488544884259	2.777978254451707
0.004499990000000001	0.00011015119655571326	2.990828103690227
0.00499999	0.00011714326897160372	3.1902069836072635
0.005499990000000001	0.00012384532671826738	3.3782516125574378
0.00599999	0.00013020752352443083	3.5566251755270253
0.006499990000000001	0.00013637486672470753	3.7266139507592317
0.00699999	0.00014225219525575738	3.8892504281504774
0.00799999	0.0001535129210843302	4.195704479179846
0.008999990000000001	0.00016404861023983593	4.481107026587487
0.00999999	0.00017404958484895468	4.7491716209767265
0.0109999	0.0001835158449116865	5.002613949065674
0.0119999	0.00019255161444978473	5.243609371095427
0.0129999	0.00020119767677610948	5.473781611470561
0.013999900000000001	0.000209503878161934	5.694453467219611
0.0149999	0.000217515533399325	5.906691969999542
0.0159999	0.0002252417054466959	6.111384202928612
0.016999900000000002	0.0002326778628248399	6.309300238838295
0.0179999	0.00023992369807630386	6.501068863682381
0.0199999	0.00025373111521902474	6.868220202159444
0.0224999	0.00026993115338286685	7.300881608508027
0.024999900000000002	0.00028516598647568845	7.709041853201029
0.0274999	0.00029953530704003627	8.09653579473831
0.0299999	0.000313179590931317	8.466315703444623
0.0324999	0.00032619399921287077	8.820675335108847
0.0349999	0.00033858306336390423	9.161492596159578
0.037499899999999996	0.000350446475926964	9.490317426822962
0.0399999	0.00036187486648618357	9.808390644236859
0.044999899999999995	0.00038342658159310194	10.416346234703845
0.0499999	0.00040354181779150616	10.992122148209829
0.0549999	0.00042240183424966315	11.540731976333614
0.059999899999999995	0.0004402014845734595	12.066029936594658
0.0649999	0.00045704046130544195	12.571051094900325
0.0699999	0.00047305924030101743	13.058234472862045
0.0799999	0.0005029307512313802	13.98669659987486
0.0899999	0.0005305274595999953	14.863530268592033
0.0999999	0.0005557406099059022	15.697754614908002
0.11	0.000579494623907262	16.49601498757213
0.12	0.0006013408851626138	17.26345049516519
0.13	0.0006222174098677385	18.004129032473344
0.13999899999999998	0.000642110603585016	18.72082180291758
0.149999	0.0006605537239561594	19.416508184860742
0.159999	0.0006785436964066359	20.09328392085792
0.169999	0.000695536743431645	20.752804953471614
0.179999	0.0007115781798232539	21.39685022129643
0.199999	0.0007417578313396703	22.643950765398095
0.224999	0.0007765142768548226	24.136016049980434
0.249999	0.0008083705756777064	25.56536863988317
0.27499900000000005	0.000837372042600389	26.941904005650425
0.299999	0.0008644249734642036	28.27314276370015
0.32499900000000004	0.0008895293682691506	29.56480896565508
0.349999	0.0009131383749358968	30.82159375430237
0.374999	0.0009353426230485755	32.04722301081311
0.39999900000000005	0.0009560514830230535	33.24505434770452
0.44999900000000004	0.0009945690562797411	35.567682774725974
0.499999	0.0010291895574186935	37.80640625106461
0.549999	0.0010608192822812437	39.97426436828927
0.5999990000000001	0.001090002008372193	42.08082093664633
0.649999	0.0011163299025629407	44.13442932638736
0.699999	0.0011411170938234207	46.141622706601794
0.799999	0.0011857521640091118	50.03535690331605
0.899999	0.0012254026070674668	53.793175365408416
0.9999990000000001	0.0012601590525826189	57.43862419798106
1.1	0.0012913809443165693	60.99009398439991
1.2	0.0013201105224868515	64.46004170642452
1.3	0.0013458493243807322	67.8591232521145
1.4	0.0013695489606316115	71.19640691783003
1.5	0.00139120943123949	74.47890255857295
1.6	0.001411374513709168	77.71245305935501
1.7	0.001429998893248578	80.90190137168622
1.8	0.001447626347362521	84.05119062414073
2.	0.001478757609512338	90.24318363994965
2.25	0.0015129702775226897	97.81476705918337
2.5	0.0015425155219501725	105.22853762276695
2.75	0.0015679371202995864	112.51164056192695
3.	0.0015906398311249987	119.68403608064754
3.25	0.001610668969218476	126.76077671427407
3.5	0.0016285229972927528	133.75484901999715
3.75	0.0016442925449319614	140.67723393602685
4.	0.001658883907977436	147.5361087038427
4.5	0.001683671099237916	161.08969998801444
5.	0.0017039721260837938	174.46374581668096
5.5	0.0017208292287326028	187.69331980106634
6.	0.0017352393326098103	200.8035362615776
6.5	0.0017472930672995503	213.81444023382653
7.	0.001757942043435223	226.74131120877215
8.	0.0017743459981633654	252.3922326932863
9.	0.0017866263068134385	277.8388670541093
10.	0.0017958705243950436	303.13360619945354
11.	0.001802713057997114	328.3162365136798
12.	0.0018081961478371837	353.41340271859195
13.	0.0018121385347469857	378.44556323116007
14.	0.0018153105701916544	403.4287320398425
15.	0.001817123161874322	428.37831509955294
16.	0.0018193889014776568	453.29991921076595
17.	0.0018202951973189906	478.19954309812044
18.	0.0018212014931603241	503.08754759406605
20.	0.0018230140848429915	552.8264226234214
22.5	0.0018234672327636587	614.9583161139458
25.	0.0018239203806843256	677.0784775226527
27.5	0.0018248266765256598	739.1754950608068
30.	0.0018257329723669932	801.2416795562126
32.5	0.001827092416128994	863.2693674766333
35.	0.0018284518598909948	925.2515607269421
37.5	0.0018307175994943295	987.2465817582475
40.	0.001885548497895026	1048.3009134980662
45.	0.0019707403069804054	1165.634152113148
50.	0.002008804732316426	1279.3321090685072
55.	0.0020205865782537656	1391.6993492020458
60.	0.0020183208386504313	1503.8499469887952
65.	0.002010617323999094	1616.3054557501264
70.	0.002000648069744422	1729.2697253877272
80.	0.001983881596679746	1956.7920273744264
90.	0.001978443821631743	2185.631680014211
100.	0.0019847878925210796	2414.4168480258954
110.	0.002002007513506423	2641.839601150896
120.	0.0020287432408257707	2866.766300934588
130.	0.002062729334875789	3088.3371413396208
140.	0.0021021532039738103	3305.991242199827
150.	0.002146108552278501	3519.3663360338187
160.	0.002193689083948527	3728.232003966465
170.	0.0022435353552218876	3932.502875543178
180.	0.0022947410702572483	4132.221356542442
200.	0.002400777683693306	4518.375000581148
225.	0.0025355891900917128	4977.491007062011
250.	0.0026692225118963853	5412.880002502561
275.	0.002800726038473924	5827.138286018659
300.	0.00292842312251786	6222.637573472464
325.	0.0030526309675726606	6601.474892174209
350.	0.003173394888430393	6965.397286274185
375.	0.003289899218833856	7315.95903726246
400.	0.003403775291297452	7654.457299248774
450.	0.00362183007072237	8299.479491730579
500.	0.0038299155958926175	8907.621277195225
550.	0.004029436625362259	9484.22225693014
600.	0.004222069806437763	10033.423587864152
650.	0.004409265212465266	10558.458882097335
700.	0.004591974454078165	11061.916195448686
800.	0.004945339202614223	12012.386335741387
900.	0.005288508122935277	12898.15149815058
1000.	0.005620574919199991	13729.03332425149