# E_R [keV]  \xi_T*d_E/dx_T [keV/Å]  x_T [Å]
0.0011	4.3292222924542936e-7	3.188980674396519
0.0012	4.425876039070234e-7	3.739599579703187
0.0013000000000000002	4.6059597609989393e-7	4.272450741985148
0.0014	4.777628355734715e-7	4.784894840973452
0.0015	4.943286145332682e-7	5.279557616174157
0.0016	5.101971400970793e-7	5.758258105371602
0.0017	5.258252334553782e-7	6.22239330042552
0.0018000000000000002	5.40491597991628e-7	6.673331270624535
0.002	5.691030304475904e-7	7.540324003765132
0.0022500000000000003	6.022826748082865e-7	8.566515907858076
0.00249999	6.335388615248841e-7	9.539194801991568
0.00274999	6.628715905973834e-7	10.466451981600112
0.00299999	6.907617264368092e-7	11.354519402357141
0.00324999	7.172092690431609e-7	12.208311295906144
0.00349999	7.424546506219515e-7	13.03187920385843
0.00374999	7.667383033786927e-7	13.828411669933192
0.00399999	7.898197951078726e-7	14.60070628370387
0.004499990000000001	8.34059320922134e-7	16.081253148072264
0.00499999	8.751732280647355e-7	17.487812722955898
0.005499990000000001	9.138828131522142e-7	18.83162687208712
0.00599999	9.5018807618457e-7	20.121377499050126
0.006499990000000001	9.848103137783398e-7	21.363874728038994
0.00699999	1.0177495259335235e-6	22.56445115884828
0.00799999	1.079540602750182e-6	24.85695754709777
0.008999990000000001	1.1365230354565949e-6	27.026632860564035
0.00999999	1.189658552874811e-6	29.09364202457162
0.0109999	1.2394280194158549e-6	31.07292640080565
0.0119999	1.2863122994907513e-6	32.97665273576981
0.0129999	1.330551825305013e-6	34.8141201327127
0.013999900000000001	1.3728678934751757e-6	36.59278092897324
0.0149999	1.4132605040012407e-6	38.31862664920045
0.0159999	1.451729656883207e-6	39.9969670193727
0.016999900000000002	1.4885157843265872e-6	41.63237528947343
0.0179999	1.5240997507424063e-6	43.22850991309148
0.0199999	1.5914207682858472e-6	46.31501329672012
0.0224999	1.6698016672828538e-6	50.00079962580217
0.024999900000000002	1.7424121933475655e-6	53.523532725986115
0.0274999	1.8102140753020312e-6	56.90710314715582
0.0299999	1.8739286097627882e-6	60.169946876972865
0.0324999	1.9342770933463726e-6	63.326527654169276
0.0349999	1.991499958258298e-6	66.38860940739939
0.037499899999999996	2.0463185011151e-6	69.36573591637398
0.0399999	2.098492289711267e-6	72.266008924833
0.044999899999999995	2.1968290617657937e-6	77.86283217301336
0.0499999	2.287712435449439e-6	83.2236516209277
0.0549999	2.373306300611814e-6	88.38159554842841
0.059999899999999995	2.453370225047407e-6	93.36254518763042
0.0649999	2.5293468019892903e-6	98.18760217270169
0.0699999	2.6014764636429775e-6	102.87339292894951
0.0799999	2.7358780665243483e-6	111.88127554871703
0.0899999	2.859460220157665e-6	120.47422927775533
0.0999999	2.974627246598052e-6	128.71575590566138
0.11	3.0823408746675576e-6	136.65422961207267
0.12	3.184043697599256e-6	144.3274395097527
0.13	3.2802165798041723e-6	151.7658364867674
0.13999899999999998	3.371821250104355e-6	158.9935719758089
0.149999	3.458857708499804e-6	166.03306593758697
0.159999	3.542768548223593e-6	172.90077980770604
0.169999	3.6235537692757226e-6	179.6106346767884
0.179999	3.701213371656192e-6	186.17537365392667
0.199999	3.849800474662787e-6	198.91140799911005
0.224999	4.020988204987538e-6	214.18331027448988
0.249999	4.182799079297308e-6	228.83586627301008
0.27499900000000005	4.333309639948002e-6	242.95126186239568
0.299999	4.477809395460889e-6	256.59436791509734
0.32499900000000004	4.614374888191869e-6	269.81529792334265
0.349999	4.74252525372992e-6	282.66269030569555
0.374999	4.868030865007335e-6	295.1712714658971
0.39999900000000005	4.988006535557969e-6	307.3680987012831
0.44999900000000004	5.217619291822205e-6	330.9253535907116
0.499999	5.4320848191391685e-6	353.500322841217
0.549999	5.6362117616191024e-6	375.22169296219926
0.5999990000000001	5.82807666161791e-6	396.19295537578665
0.649999	6.012728595451349e-6	416.4979331548642
0.699999	6.190167563119418e-6	436.2003583216876
0.799999	6.5262917864256e-6	474.0119128796395
0.899999	6.841498407852212e-6	509.981661367101
0.9999990000000001	7.1384321816598885e-6	544.3771402781084
1.1	7.4221421841643915e-6	577.4017054853012
1.2	7.692387983160206e-6	609.215505168471
1.3	7.951573900702455e-6	639.9531480608255
1.4	8.202344691051774e-6	669.7205447372769
1.5	8.444219489797137e-6	698.6067112855873
1.6	8.677198296938545e-6	726.6919550313306
1.7	8.90416629894215e-6	754.0426241001827
1.8	9.124402199191406e-6	780.7147439360795
2.	9.54780331309855e-6	832.2199669974268
2.25	9.967357511717494e-6	893.7913852965345
2.5	0.000010366234540662383	952.9124981656763
2.75	0.000010751166501687559	1009.840424266167
3.	0.000011123836420231607	1064.7965327036432
3.25	0.000011484244296294532	1117.9706073673242
3.5	0.000011834554019725938	1169.5244196481417
3.75	0.000012176689048169927	1219.590722031347
4.	0.00001250584073751625	1268.2948277746355
4.5	0.000013138658302424598	1362.0494445373583
5.	0.000013739257951794297	1451.5004368736388
5.5	0.000014309563143269451	1537.2182034598245
6.	0.000014858229436248496	1619.6484521047425
6.5	0.000015385256830731435	1699.146752752707
7.	0.000015894732674211978	1776.011370566924
8.	0.00001687016613197534	1922.7763666388332
9.	0.000017797272716430726	2061.4879696978414
10.	0.000018684948419182104	2193.2977597533463
11.	0.0000195319910792019	2319.122260304441
12.	0.000020342968908394854	2439.714272164752
13.	0.00002111980536440506	2555.6862302612453
14.	0.00002185961526076638	2667.5646849111204
15.	0.00002256696680938354	2775.7986462825274
16.	0.000023241860010256535	2880.766256900303
17.	0.000023886458753234986	2982.795095091406
18.	0.0000245029750146096	3082.164286406726
20.	0.000025641926415341864	3273.9031242997253
22.5	0.00002694838693365455	3502.433758316568
25.	0.000028089117532707608	3720.8048196995383
27.5	0.000029135646793640952	3930.832876731615
30.	0.0000300394554973822	4133.940719993675
32.5	0.00003087238478693842	4331.269021197728
35.	0.000031610151009552895	4523.6347692690715
37.5	0.0000322766050400124	4711.777187079808
40.	0.00003287165070543478	4896.276972103835
45.	0.00003387105525408771	5256.318341795802
50.	0.00003463180679554914	5607.140880166187
55.	0.000035225578170282296	5951.197636423977
60.	0.000035676124080191775	6290.203950179112
65.	0.00003600727135684386	6625.521703976116
70.	0.00003621887574091523	6958.325773201208
80.	0.000036355128671779035	7620.417168233765
90.	0.000036252488163245834	8282.350812526338
100.	0.00003593458870111748	8948.234388156647
110.	0.00003549733869217284	9621.25263772171
120.	0.0000349645409247576	10303.596389006692
130.	0.00003438418566709205	10996.933743212454
140.	0.00003375617674629394	11702.589046256593
150.	0.000033104461210032324	12421.773302334555
160.	0.00003242896692864554	13155.569481055207
170.	0.000031777756300015504	13904.550504186762
180.	0.000031126762060370434	14669.025791136091
200.	0.00002987334088659376	16246.2670627053
225.	0.000028427477775525056	18309.4420924425
250.	0.000027102407804505723	20475.528385152367
275.	0.00002589801075743301	22744.9903268033
300.	0.00002481416641820415	25116.73506625584
325.	0.00002382194598385193	27589.610349779807
350.	0.00002292370328566829	30162.41835897523
375.	0.000022102574408758605	32833.350833982106
400.	0.00002135131032212668	35600.844755111764
450.	0.000020024639072618636	41418.812020303434
500.	0.000018885848761464062	47604.21836651992
550.	0.000017901192324297252	54145.633015706066
600.	0.000017036946739973047	61032.33082163409
650.	0.00001627383896289759	68254.79230588772
700.	0.000015595002673854193	75803.41583241467
800.	0.000014434768214289976	91845.83621197428
900.	0.000013483986270557789	109095.16772453394
1000.	0.000012692089141194292	127486.79306094142