# E_R [keV]  \xi_T*d_E/dx_T [keV/Å]  x_T [Å]
0.0011	0.00011239468473088528	0.8689451288611169
0.0012	0.00011845646245035719	0.949789268318126
0.0013000000000000002	0.00012479801452611243	1.0264840070210752
0.0014	0.00013093439874059323	1.0994248266309454
0.0015	0.0001369681990244368	1.169050655553543
0.0016	0.00014278750563512984	1.2357252660857303
0.0017	0.00014851355412706175	1.299758441786556
0.0018000000000000002	0.00015412769287648036	1.3613909211283608
0.002	0.00016495496046464478	1.4783083097753513
0.0022500000000000003	0.00017788053572493408	1.6143399575880855
0.00249999	0.0001901906074014001	1.7410376060122381
0.00274999	0.0002020903433553173	1.8599200673290954
0.00299999	0.0002135890693985617	1.972105766611298
0.00324999	0.00022466813390738114	2.078510462413844
0.00349999	0.000235448772436165	2.1798598211735887
0.00374999	0.0002459309849849134	2.2767288448845413
0.00399999	0.00025601218762298894	2.369628638909225
0.004499990000000001	0.00027564302162220186	2.5450740125090556
0.00499999	0.0002942759937506709	2.7087254586918563
0.005499990000000001	0.0003122002041765555	2.862510745920652
0.00599999	0.0003294156528998557	3.0078698177070136
0.006499990000000001	0.0003460342496630848	3.145946925445661
0.00699999	0.0003621399267731279	3.2776420272691507
0.00799999	0.0003928591510930363	3.5247197545441713
0.008999990000000001	0.0004219650099583776	3.7536502820964044
0.00999999	0.00044967199704230225	3.9676532165542344
0.0109999	0.0004761852802060848	4.1691008741440045
0.0119999	0.0005015887917566101	4.359865611448639
0.0129999	0.0005260037672482678	4.541381376352365
0.013999900000000001	0.0005496167229185798	4.714792325638183
0.0149999	0.0005725209168863075	4.881012111775837
0.0159999	0.000594641742656442	5.040818511488621
0.016999900000000002	0.0006161563906546292	5.194866110814587
0.0179999	0.0006370835125046214	5.3436959493039335
0.0199999	0.0006773337165619149	5.627512163904495
0.0224999	0.0007250165926844687	5.960039274293761
0.024999900000000002	0.0007702094770361006	6.271905948387253
0.0274999	0.0008132201214087228	6.566396779605516
0.0299999	0.0008543469517823708	6.846025689463666
0.0324999	0.0008937018778995576	7.112779612308226
0.0349999	0.0009316579322353278	7.368235356334243
0.037499899999999996	0.0009682337664134338	7.613672064555983
0.0399999	0.0010039889291464418	7.8501041375008445
0.044999899999999995	0.0010704633161993584	8.299624101055151
0.0499999	0.0011339254660162913	8.72270169527275
0.0549999	0.0011944033560328687	9.123243354848814
0.059999899999999995	0.001251924963684719	9.504453779138114
0.0649999	0.0013065089405955945	9.86896300978279
0.0699999	0.0013590971937649824	10.218822062449092
0.0799999	0.0014583704611861798	10.880803310384719
0.0899999	0.0015507892568784364	11.500606413855236
0.0999999	0.001637239532969982	12.085634854940468
0.11	0.0017187471287671886	12.641386266987231
0.12	0.0017954053023888181	13.172129209942721
0.13	0.001869079216210092	13.681101588680692
0.13999899999999998	0.0019388362890433994	14.170856300393435
0.149999	0.0020066349413827237	14.643578228926009
0.159999	0.00207042349461532	15.101038052654168
0.169999	0.0021323468854726954	15.5448292535575
0.179999	0.0021922185977173254	15.976116102032702
0.199999	0.002305154179537025	16.805443510698975
0.224999	0.0024372076757027514	17.788597120873554
0.249999	0.0025593758112798007	18.721726121967823
0.27499900000000005	0.002673710264880917	19.612703380209332
0.299999	0.0027812368758124723	20.467450387968995
0.32499900000000004	0.0028827949671433174	21.29065385253743
0.349999	0.0029793171200610626	22.086035540596153
0.374999	0.0030701505277343803	22.856796418416394
0.39999900000000005	0.003157906417488581	23.605468983954655
0.44999900000000004	0.003320641834726711	25.04469482542077
0.499999	0.00347060088969457	26.417731821128317
0.549999	0.0036097420028861405	27.734736139803868
0.5999990000000001	0.003739930336676645	29.00348846742243
0.649999	0.003861352407303606	30.230254246776276
0.699999	0.003975780119023483	31.420124174088468
0.799999	0.004186916499898627	33.704567492816516
0.899999	0.004377256320290045	35.88199594957473
0.9999990000000001	0.0045508096793044645	37.97076269955606
1.1	0.004710560836742239	39.98441376692436
1.2	0.004857349115672221	41.933572498041634
1.3	0.004994252034013524	43.82665079688425
1.4	0.005122202172953763	45.670183145496516
1.5	0.005242132113680545	47.469644448239606
1.6	0.005355160953619006	49.2295567872275
1.7	0.005461288692769145	50.95382805492698
1.8	0.005562287235387424	52.64571851105896
2.	0.005748430440434591	55.94301845469223
2.25	0.005957608400815752	59.92540093158543
2.5	0.006144684187050531	63.777577414194255
2.75	0.0063146004794332675	67.51949346079168
3.	0.006468476375389093	71.16671786163494
3.25	0.006610228715905975	74.73157247968365
3.5	0.006739857500983912	78.2240095151934
3.75	0.0068603469904232614	81.65229057696266
4.	0.006972629765411634	85.02290021756721
4.5	0.007173880785698101	91.61346878326047
5.	0.007351537501938008	98.03250396776002
5.5	0.007508677432050472	104.30715884622427
6.	0.007650243256329831	110.45835116736171
6.5	0.00777735407220122	116.50252773934476
7.	0.00789290088134623	122.45322262789284
8.	0.008093872127276414	134.11629650324832
9.	0.008263601903421628	145.51593722196804
10.	0.008408151987501342	156.7012219140345
11.	0.008532185285453613	167.70963330744794
12.	0.008640364703216498	178.56955451430804
13.	0.008735487984352825	189.30263427250765
14.	0.008819420291237822	199.92641488073434
15.	0.008894026786246706	210.45519422794285
16.	0.00895930746937948	220.90160517396157
17.	0.009018060084198977	231.27607260260712
18.	0.009070284630705196	241.58694082869835
20.	0.00915981242471586	262.04641635903965
22.5	0.009248407637538909	287.3717101374929
25.	0.009315553483046907	312.4858790540521
27.5	0.009368710610740738	337.4393666447688
30.	0.009409744182995623	362.2682936646301
32.5	0.009442384524562012	387.00048962633224
35.	0.009465699054252288	411.6598942047377
37.5	0.009484350678004507	436.26519229561137
40.	0.009498339395818674	460.8282306064796
45.	0.009514193276008064	509.87333397157585
50.	0.00952072134432134	558.8629256389892
55.	0.00951978876313373	607.8391191983968
60.	0.009514193276008064	656.8333107470202
65.	0.009506732626507175	705.8615330810931
70.	0.009496474233443452	754.9372782226134
80.	0.009504867464131952	853.1456404921382
90.	0.009597193001705447	950.8058661179675
100.	0.009646619804648834	1047.6990443922284
110.	0.009668069171963889	1144.2470906817025
120.	0.009671799496714331	1240.6763953664483
130.	0.009664338847213443	1337.1293433946498
140.	0.00965128271058689	1433.6886295598379
150.	0.009636361411585113	1530.3903162309618
160.	0.009621440112583335	1627.242635854651
170.	0.009606518813581556	1724.2460586121283
180.	0.009593462676955003	1821.3917121157344
200.	0.009573878472015171	2016.026353910465
225.	0.00956362007895145	2259.71280848014
250.	0.009569215566077115	2503.4587031482365
275.	0.009590664933392171	2746.859601781667
300.	0.009627035599709	2989.5243486687186
325.	0.009675529821464777	3231.117436380022
350.	0.009734282436284273	3471.3757259908816
375.	0.009805158606542715	3710.036463050502
400.	0.009882562845114433	3946.8957604580105
450.	0.010063483595510977	4414.580058344196
500.	0.010268651456785412	4873.349825882755
550.	0.010492470941812068	5322.627084996972
600.	0.010733076888215723	5762.06310913957
650.	0.01098580639005832	6191.505107336437
700.	0.011247861703777028	6610.996058029735
800.	0.01179155653615428	7420.8608177952565
900.	0.012365093966535082	8193.187151813543
1000.	0.012934901072165442	8930.430904548464