# E_R [keV]  \xi_T*d_E/dx_T [keV/Å]  x_T [Å]
0.0011	0.00018912211272644876	0.964261007227076
0.0012	0.000199383380004532	1.0538437379727184
0.0013000000000000002	0.00020996987727939513	1.1388319966380245
0.0014	0.000220017223222698	1.2197306032280057
0.0015	0.00022987325740318908	1.297054018986437
0.0016	0.00023953971901871226	1.3711582185869398
0.0017	0.00024884442748273684	1.4423827087429388
0.0018000000000000002	0.000257963041777481	1.5110193984983336
0.002	0.0002756454662548153	1.6414096823085518
0.0022500000000000003	0.00029660453946976113	1.7933934119003887
0.00249999	0.0003168122792162102	1.935167007229991
0.00274999	0.0003359434554973822	2.068396698055646
0.00299999	0.00035450069649011916	2.194355234316676
0.00324999	0.0003723448663669215	2.3140017384808313
0.00349999	0.0003896151009552888	2.428134196672545
0.00374999	0.0004063635761905331	2.5373887977302516
0.00399999	0.00042271203592171645	2.6422811357097524
0.004499990000000001	0.0004539828131522141	2.8406787975680334
0.00499999	0.0004836187444095936	3.0261895974352813
0.005499990000000001	0.0005121415890469775	3.20086284800996
0.00599999	0.0005393948192584289	3.3662649816576513
0.006499990000000001	0.0005655697468067598	3.523669198356595
0.00699999	0.0005908228994979071	3.6740731896279124
0.00799999	0.0006391204236186478	3.9569158199649426
0.008999990000000001	0.000684513487340338	4.219723316790541
0.00999999	0.0007275586339729752	4.466068938913302
0.0109999	0.0007685863111068708	4.69854731139875
0.0119999	0.0008078052224832735	4.919207994080921
0.0129999	0.0008453718959081206	5.129618276713247
0.013999900000000001	0.0008815124271010985	5.331047409968235
0.0149999	0.0009163659518897065	5.524522680338545
0.0159999	0.0009501411740151941	5.710883489475788
0.016999900000000002	0.0009828207014991235	5.89083670946137
0.0179999	0.0010145958461043067	6.064982644568494
0.0199999	0.0010752416749156223	6.3978566565704105
0.0224999	0.0011469835859700176	6.789181363248172
0.024999900000000002	0.0012143775024150557	7.1574418107675815
0.0274999	0.0012783278071294827	7.5062975580530145
0.0299999	0.0013390084198976733	7.838539757643081
0.0324999	0.0013969932760080623	8.156374182795659
0.0349999	0.0014526302150293983	8.46153364744245
0.037499899999999996	0.0015059018449832442	8.755458599111643
0.0399999	0.0015571907893952225	9.03935161174351
0.044999899999999995	0.0016545336927095136	9.5808458127458
0.0499999	0.001745719835656955	10.09232712226451
0.0549999	0.0018325405920166014	10.578344019634805
0.059999899999999995	0.0019127523965700249	11.042695990429301
0.0649999	0.0019910684754737683	11.488198741257238
0.0699999	0.0020640452169972214	11.917056258358807
0.0799999	0.0022009374792782265	12.732560327881972
0.0899999	0.0023287511288148936	13.500418736431033
0.0999999	0.002447520949564098	14.228605978574288
0.11	0.002557333901418026	14.923561831029962
0.12	0.002661685772042601	15.590019122874923
0.13	0.002760593953416261	16.23148414911582
0.13999899999999998	0.0028541106214743173	16.85089572094507
0.149999	0.0029422357762167715	17.450965392629207
0.159999	0.0030267260074658023	18.033692499532464
0.169999	0.0031075987071998478	18.600707833763686
0.179999	0.0031848712673973457	19.15347316822415
0.199999	0.003330389950983316	20.221122810999567
0.224999	0.0034982399348829447	21.49439594404995
0.249999	0.0036533589905663757	22.71017949095388
0.27499900000000005	0.0037959732137532952	23.877389892352614
0.299999	0.003929369688368377	25.002926594834943
0.32499900000000004	0.00405389625398037	26.092086468510413
0.349999	0.004169205071020525	27.149508261447927
0.374999	0.004279296294529452	28.178750758108286
0.39999900000000005	0.004383822084938402	29.182486761249248
0.44999900000000004	0.004576351286240742	31.123080970401848
0.499999	0.004750966749752532	32.98741387374223
0.549999	0.0049127121492206225	34.78688473501378
0.5999990000000001	0.005060022206585649	36.530596874240096
0.649999	0.005196549237319468	38.2261127151384
0.699999	0.00532385851948145	39.87913602606911
0.799999	0.005556389271189878	43.075204891591376
0.899999	0.005761614616751541	46.147761561400216
0.9999990000000001	0.005945099989266419	49.11843770109534
1.1	0.006110149864637623	52.00340067522064
1.2	0.006262329675965129	54.81441639303369
1.3	0.006399726305620819	57.56119514505084
1.4	0.006528079106489048	60.25156495369063
1.5	0.006645301041157319	62.89179984026431
1.6	0.006755218344881872	65.48730847652159
1.7	0.006855917900034587	68.0426750610395
1.8	0.006951052022087323	70.56184919724292
2.	0.007124450047108493	75.50325824379526
2.25	0.007314892210998344	81.52410491927233
2.5	0.007479246407232049	87.40085736119907
2.75	0.007624817266753331	93.15728706816219
3.	0.007753517907190308	98.81119314065234
3.25	0.007868826724230463	104.37694518568189
3.5	0.007973004675070663	109.86562906546423
3.75	0.00806570392014216	115.28697771019668
4.	0.008149011496857447	120.64959132910602
4.5	0.008296321554222472	131.22277749456634
5.	0.0084185871626376	141.6257320325488
5.5	0.008521547674987182	151.89082272176935
6.	0.008608855406743075	162.0422414908951
6.5	0.008684162673377144	172.09838447312165
7.	0.008747817314458135	182.0744738025242
8.	0.008848864709179598	201.8362474754718
9.	0.008925215494519911	221.40224976259668
10.	0.008980869825519686	240.8246907370749
11.	0.009019653937435153	260.1462451550499
12.	0.00904922030077878	279.39524721333845
13.	0.009068003637491205	298.5930424903464
14.	0.009079482343259908	317.75917467415775
15.	0.009084178177438016	336.90859000412087
16.	0.009085569535713009	356.0517730807122
17.	0.009082265059809897	375.1969873555755
18.	0.00907583002778805	394.35266193349344
20.	0.00905600317236938	432.7178111537151
22.5	0.009021567055063271	480.8174962808121
25.	0.00897947846724469	529.12419660224
27.5	0.00893773771899486	577.6574499646118
30.	0.008890779377213802	626.4324995002562
32.5	0.008845560233276486	675.4626284544515
35.	0.008802080287182913	724.7383758686938
37.5	0.008756861143245599	774.263458743913
40.	0.008715120394995767	824.0358450756596
45.	0.008635117294183592	924.3133521634339
50.	0.008642074085558563	1025.0597337455447
55.	0.008730773175589453	1125.186639656985
60.	0.00877077472599554	1224.5229166766421
65.	0.008779470715214255	1323.5974047869036
70.	0.008769035528151798	1422.6898952041572
80.	0.008711641999308281	1621.60851761229
90.	0.008638595689871078	1822.0791451050654
100.	0.008569027776121363	2024.236584659651
110.	0.008509895049434103	2227.9310473980786
120.	0.008468154301184272	2432.8407457535923
130.	0.008442066333528129	2638.5704784497466
140.	0.008431631146465671	2844.7472166048815
150.	0.008438587937840643	3050.9629138913424
160.	0.008457719114121817	3256.858475864233
170.	0.008492503070996672	3462.0957296823835
180.	0.008535983017090246	3666.384961056209
200.	0.008657726866152252	4071.2090441089886
225.	0.008859473816026428	4567.887818378207
250.	0.009102961514150437	5052.2103043757
275.	0.009381233169149305	5522.826772449378
300.	0.009683853593960573	5979.076434189043
325.	0.010007344392896756	6420.8058075405625
350.	0.010348227170270369	6848.098833881721
375.	0.010699545134706438	7261.326208176526
400.	0.011061298286204965	7661.00602894716
450.	0.011802196567639449	8422.072195612378
500.	0.01255874762966762	9136.2944074707
550.	0.013325733878758244	9808.422877263018
600.	0.014093415806986372	10442.887799008944
650.	0.0148597063769395	11043.712909883017
700.	0.01562182287206765	11614.390321965784
800.	0.01712622900690527	12677.152570988386
900.	0.018598807821202403	13651.192412759423
1000.	0.02002842844875908	14551.918762950527