# E_R [keV]  \xi_T*d_E/dx_T [keV/Å]  x_T [Å]
0.0011	0.0004210353540292669	0.9739825663127977
0.0012	0.00044198217772424244	1.0713285215868282
0.0013000000000000002	0.0004642722847022624	1.1639913335779704
0.0014	0.00048572283962837964	1.2523689901980202
0.0015	0.0005065017529129746	1.3369893845487977
0.0016	0.0005272386885949743	1.4182062095684054
0.0017	0.0005466323409939295	1.4963862572380422
0.0018000000000000002	0.0005659840157902897	1.5718490192814563
0.002	0.0006032601268947752	1.7154470396468908
0.0022500000000000003	0.000647462542427459	1.8832745088484497
0.00249999	0.00068935618981741	2.04028454439231
0.00274999	0.0007294028226931747	2.188232749724002
0.00299999	0.0007679802394781096	2.32841171246726
0.00324999	0.0008052143729799999	2.461832508629649
0.00349999	0.0008410632455962506	2.589327262001001
0.00374999	0.0008755268573268615	2.7116002963166053
0.00399999	0.0009090669618003793	2.829215028274886
0.004499990000000001	0.0009733346713735407	3.0522319767324655
0.00499999	0.0010343701055468759	3.2613232175462255
0.005499990000000001	0.0010922152419229807	3.4587237477353385
0.00599999	0.0011477516101563528	3.646133039588213
0.006499990000000001	0.0012010211878495868	3.8248561031107386
0.00699999	0.0012519819974000884	3.9959846157729078
0.00799999	0.001349286080215626	4.3187529574024826
0.008999990000000001	0.0014401675898341067	4.6197341828403635
0.00999999	0.001526473540769717	4.902735543311882
0.0109999	0.0016077841569965058	5.170573055738192
0.0119999	0.0016854427217975168	5.425508805370965
0.0129999	0.0017598690111987028	5.669188423271636
0.013999900000000001	0.0018311050028026574	5.902984554027223
0.0149999	0.0019000742038664746	6.127992616055688
0.0159999	0.001965853107133061	6.345157036860133
0.016999900000000002	0.0020297849958854607	6.555274269827859
0.0179999	0.0020914920717003183	6.758984387872291
0.0199999	0.0022097849558134265	7.149368516907178
0.0224999	0.002348059178761822	7.609844473116321
0.024999900000000002	0.0024776860155756183	8.044763161550707
0.0274999	0.0026000087495378597	8.45810068883226
0.0299999	0.0027155730894822838	8.852941273217008
0.0324999	0.0028256383634867443	9.231707709644041
0.0349999	0.002930708302782383	9.596315869771706
0.037499899999999996	0.0030308248849717943	9.94837692802629
0.0399999	0.003127247438132835	10.289204951727472
0.044999899999999995	0.003309262322985366	10.941325868556731
0.0499999	0.003478516016648976	11.5597041076595
0.0549999	0.0036369394888430395	12.149613433890945
0.059999899999999995	0.003786253821273957	12.715072690596891
0.0649999	0.003927424498801417	13.25923958465738
0.0699999	0.004061291073477322	13.78467451902538
0.0799999	0.004310470122482082	14.787344393477229
0.0899999	0.004538618392586674	15.735951414587879
0.0999999	0.004748926181588332	16.639820571204
0.11	0.00494748024186335	17.50556698316708
0.12	0.005127983933022457	18.338734763354875
0.13	0.0052996723276365855	19.143809368679232
0.13999899999999998	0.0054617058736538306	19.92385695890793
0.149999	0.00561912188338561	20.68146933300488
0.159999	0.005763524836312896	21.418983282892828
0.169999	0.005902890476928766	22.13857789216783
0.179999	0.006033440820999655	22.841897973507482
0.199999	0.0062844668845186	24.20518011866197
0.224999	0.006566976149983901	25.838008019451085
0.249999	0.006826397734021873	27.404861310333295
0.27499900000000005	0.007063151412658471	28.91579069386859
0.299999	0.007285212930386768	30.378433939931963
0.32499900000000004	0.007489643855025106	31.7988479367291
0.349999	0.007680222170807046	33.18229532349694
0.374999	0.007856947877732591	34.533093348401884
0.39999900000000005	0.008028636272346719	35.8542862442976
0.44999900000000004	0.008335492547317202	38.41879363586465
0.499999	0.008618421588808454	40.894327351217186
0.549999	0.0088694476523274	43.2942951225043
0.5999990000000001	0.009101583794678531	45.62991406011566
0.649999	0.009319447552147312	47.90842214318456
0.699999	0.009514223628188769	50.1370037293488
0.799999	0.00987439145845508	54.466050516981255
0.899999	0.010187124597788881	58.64980393044071
0.9999990000000001	0.01046249767081301	62.714727150557415
1.1	0.010713103958306004	66.6789062801063
1.2	0.010939783012319767	70.55565553384918
1.3	0.011142534832854298	74.35712214629297
1.4	0.011330174716454582	78.0926756468116
1.5	0.011503542215172512	81.76921683962392
1.6	0.01166599553721571	85.39246466316065
1.7	0.01181417647437656	88.96778726606613
1.8	0.011952702562940525	92.5000297338781
2.	0.012199530866199956	99.4504679060094
2.25	0.012469866626912665	107.95656994221594
2.5	0.012704101649393553	116.29245917054784
2.75	0.012907273245954039	124.48622927056498
3.	0.013084838504931487	132.56031214558732
3.25	0.013245192946844926	140.53099391787887
3.5	0.013389176123746262	148.41061865539976
3.75	0.01351720781166144	156.21068526988898
4.	0.013633485770849984	163.94067413294724
4.5	0.013833299159202853	179.22042000688737
5.	0.014002468897661272	194.29853957750927
5.5	0.014146452074562606	209.20920639382646
6.	0.014266927794010663	223.98154357813152
6.5	0.014373131128576369	238.63734751444233
7.	0.014465062078259731	253.19262535771693
8.	0.014622897864017463	282.04946787857835
9.	0.014742534031413613	310.63514225730927
10.	0.014847478037901466	339.0055647095087
11.	0.014935631003351263	367.1918640028138
12.	0.015006992927763004	395.22864501702924
13.	0.015069959331655716	423.1411800406775
14.	0.015128727975288914	450.9411943745847
15.	0.015179101098403085	478.6414113351098
16.	0.015229474221517252	506.25017482554057
17.	0.015275649584371907	533.7715535023505
18.	0.015321824947226564	561.2099452266178
20.	0.015401582392157331	615.8548782103512
22.5	0.015502328638385672	683.7709612911625
25.	0.015598877124354498	751.2559093384126
27.5	0.01569542561032332	818.3259527046075
30.	0.015796171856551657	884.9772945322802
32.5	0.015905313623299024	951.1924879978485
35.	0.016048037472122505	1016.8822846830611
37.5	0.016178168040167442	1082.0080050257745
40.	0.016295705327433845	1146.6373432597804
45.	0.016501395580150034	1274.6068061502056
50.	0.01667350375079011	1401.1274894029161
55.	0.016833018640651648	1526.4063938521035
60.	0.016992533530513183	1650.5037391303956
65.	0.01713945513959618	1773.4880775198287
70.	0.017290574508938686	1895.4115825187987
80.	0.01758861548736419	2136.116426487518
90.	0.017886656465789696	2372.7827095165267
100.	0.01818889520447471	2605.5109165549884
110.	0.018491133943159727	2834.4062226305796
120.	0.018802607754415678	3059.5352802252123
130.	0.01911492111772353	3280.9588398683145
140.	0.0194331113453947	3498.763859995176
150.	0.019758857541532993	3712.9900509812715
160.	0.020090060826008657	3923.6825619512283
170.	0.020424622318691934	4130.912883059318
180.	0.020765060675738533	4334.747793151445
200.	0.02145978999868812	4732.46653360964
225.	0.02235559203806843	5211.6057612331715
250.	0.023268604894512757	5671.740127107163
275.	0.024207643864566065	6113.915104154622
300.	0.025155078355138406	6539.180773232296
325.	0.026119303886748803	6948.589487770354
350.	0.027093184266956078	7343.075077251348
375.	0.02807000307934502	7723.605569747838
400.	0.029052698756097273	8091.080288876797
450.	0.03102480652601701	8790.065695366911
500.	0.032996494519910796	9445.938499820419
550.	0.034949292592636766	10063.89377254121
600.	0.03688781828048039	10648.349787005567
650.	0.03879612009445551	11203.072640892358
700.	0.04067209915443237	11731.364273805988
800.	0.04431239685148302	12719.584996257583
900.	0.0478246628606185	13630.960976029564
1000.	0.05114341212179036	14479.262004673821