# E_R [keV]  \xi_T*d_E/dx_T [keV/Å]  x_T [Å]
0.0011	0.00026802625354430197	1.0131524279286737
0.0012	0.00028239195204724757	1.0987675855816188
0.0013000000000000002	0.00029727575770931587	1.1800433525128289
0.0014	0.0003119240601172374	1.2573658980135458
0.0015	0.0003260542553660364	1.331198224859263
0.0016	0.00033990184670985944	1.4019279067483579
0.0017	0.00035325488121997444	1.4698832025416555
0.0018000000000000002	0.0003666079157300895	1.5353183003948627
0.002	0.00039201871685251306	1.659467729519795
0.0022500000000000003	0.0004224692876136748	1.804065239400496
0.00249999	0.00045160104015161536	1.9387932027731094
0.00274999	0.00047948462544257866	2.0652750808414218
0.00299999	0.0005065910499948581	2.184699138346577
0.00324999	0.0005324493073001601	2.2980335400980834
0.00349999	0.000557765907120925	2.40604996044503
0.00374999	0.0005823288965284205	2.509336877028194
0.00399999	0.0006061382755226469	2.6084190482065264
0.004499990000000001	0.0006519672087795848	2.7956327418552385
0.00499999	0.000695535310796715	2.97042029483756
0.005499990000000001	0.0007373371384077452	3.13479285768712
0.00599999	0.0007776081948668226	3.2902568063598854
0.006499990000000001	0.000816372030499361	3.438009873116365
0.00699999	0.0008538641485595075	3.579016216822899
0.00799999	0.0009253629365184304	3.843777094285867
0.008999990000000001	0.0009930465717601776	4.089320407945484
0.00999999	0.0010572447588405541	4.3190636688368444
0.0109999	0.0011186640075220005	4.535520091049583
0.0119999	0.001177327868129931	4.7406721946496155
0.0129999	0.0012339899510776149	4.936012545273065
0.013999900000000001	0.0012886267060396375	5.122730521158312
0.0149999	0.0013412852336668285	5.3018305958516905
0.0159999	0.0013924365404674806	5.474129842598652
0.016999900000000002	0.0014420806264415944	5.64030038560781
0.0179999	0.0014902410419145844	5.800927860350389
0.0199999	0.0015827938207942178	6.1074861724589535
0.0224999	0.0016920673307182631	6.467063087796523
0.024999900000000002	0.0017955945612411304	6.804699029809768
0.0274999	0.0018941291227760884	7.123838971845573
0.0299999	0.001987953619228114	7.427162049414559
0.0324999	0.002077774560359646	7.716784868859715
0.0349999	0.002164133603655222	7.994379076550888
0.037499899999999996	0.0022474782052977218	8.261292311402746
0.0399999	0.0023275964123584117	8.51866739731433
0.044999899999999995	0.0024803909236487585	9.008479213385742
0.0499999	0.0026230587950107982	9.469941686663862
0.0549999	0.0027603807425037093	9.907409076748836
0.059999899999999995	0.0028903078878164162	10.324160762782224
0.0649999	0.0030128402309489185	10.723093590235795
0.0699999	0.003130403455418926	11.106445127355585
0.0799999	0.0033530482318891684	11.832890194984198
0.0899999	0.003558407069505047	12.514333191366578
0.0999999	0.0037513313353019816	13.158673232730505
0.11	0.003934317363773929	13.771486801403322
0.12	0.00410505722303025	14.357327840570935
0.13	0.004268025474899732	14.919827355396158
0.13999899999999998	0.004421573596603347	15.461788437814713
0.149999	0.004569940646715736	15.985620070861573
0.159999	0.004713126625236899	16.492985897070593
0.169999	0.004849012002879516	16.985541919601875
0.179999	0.0049801873154392004	17.464722031427943
0.199999	0.005227230229039035	18.38745403098219
0.224999	0.005515250708860388	19.48345854479989
0.249999	0.005780662876283663	20.525771012759296
0.27499900000000005	0.006028883306154231	21.522780991631347
0.299999	0.006262267031013561	22.480723000461634
0.32499900000000004	0.006480814050861651	23.404692122730914
0.349999	0.00668687939823997	24.298884909462686
0.374999	0.006883053608944129	25.166579145527088
0.39999900000000005	0.007069336682974129	26.010491547715905
0.44999900000000004	0.00741929451863605	27.635664949050973
0.499999	0.007737223911734027	29.189236347459914
0.549999	0.008032780495688074	30.682420160357093
0.5999990000000001	0.008305964270498187	32.123640960470006
0.649999	0.008561720804501448	33.51970382919256
0.699999	0.008802405130239324	34.87586690295271
0.799999	0.009244209235018437	37.485110803167906
0.899999	0.00963844168245993	39.97895335236575
0.9999990000000001	0.009997819648287717	42.377192347095715
1.1	0.010324698165043267	44.694547552382176
1.2	0.010628732866146592	46.94215309588594
1.3	0.01090803972556452	49.128882478787695
1.4	0.011167093305125832	51.262347816236606
1.5	0.01141107467642176	53.34829365289103
1.6	0.011637628806910839	55.391663847751964
1.7	0.011851465761675997	57.39677027571332
1.8	0.012055176076512847	59.36686140498571
2.	0.012427271218064556	63.2135459616017
2.25	0.012841756945362657	67.87230477472964
2.5	0.013210555041356313	72.39124349455983
2.75	0.013543556642719673	76.79178164235697
3.	0.013843587788502504	81.09070528154142
3.25	0.014117713576329204	85.30143445560256
3.5	0.014366640515962216	89.43491820777173
3.75	0.014597198201771787	93.50004747437016
4.	0.014809622137012065	97.50396412057077
4.5	0.015190666402221345	105.35202853841864
5.	0.015522254984059822	113.01836781541488
5.5	0.015814514522455816	120.53231226854633
6.	0.016070506559713225	127.91731333090395
6.5	0.01630200625853938	135.1912799623268
7.	0.01650736509615526	142.36845753865762
8.	0.016863917022933286	156.47831494045118
9.	0.0171582960906166	170.31897958270292
10.	0.01740369048143741	183.94422290692472
11.	0.01761093334508646	197.39388701177876
12.	0.01778756078569645	210.69798805585475
13.	0.017935927835808833	223.8814723596734
14.	0.018067809658130964	236.96261729843468
15.	0.018180851220121353	249.95536724486035
16.	0.018277407554321477	262.8736250273887
17.	0.018362188725814275	275.7281510464446
18.	0.018437549767141202	288.52676963819533
20.	0.018555301394214525	313.98618479038197
22.5	0.018665987923663453	345.6164361424542
25.	0.01874134896499038	377.09056756193775
27.5	0.018793159680902644	408.45936400810524
30.	0.01882848516902464	439.7561553828518
32.5	0.018849680461897837	471.0063214486172
35.	0.018859100592063704	502.23143959095
37.5	0.018859100592063704	533.4492462340048
40.	0.018854390526980767	564.6713172812947
45.	0.01883319523410757	627.1559631824638
50.	0.018802579811068507	689.72800004167
55.	0.018764899290405042	752.4147754448663
60.	0.018724863737200115	815.2311712323531
65.	0.018675408053829317	878.1939178414793
70.	0.018595336947419456	941.3769348661134
80.	0.018468165190180266	1068.4804578866147
90.	0.01837160885598014	1196.3491311991822
100.	0.018298602847194676	1324.8055774978354
110.	0.018244437098740948	1453.707642148007
120.	0.01820911161061895	1582.9254307351252
130.	0.018190271350287217	1712.3340987321017
140.	0.018185561285204287	1841.82584446565
150.	0.018194981415370154	1971.300826428249
160.	0.018218531740784815	2100.6585834001235
170.	0.01825621226144828	2229.797809359079
180.	0.018303312912277613	2358.6372259217924
200.	0.018439904799682667	2615.092498755601
225.	0.018663632891121985	2932.5398728993277
250.	0.018946236796097964	3245.704719728971
275.	0.019273586319361807	3553.8612605931426
300.	0.019643326428372045	3856.491072086026
325.	0.02004603699296282	4153.221026308116
350.	0.02047465291550972	4443.857732468671
375.	0.020926819163471284	4728.307424012388
400.	0.021397825671764584	5006.548170346024
450.	0.02238222927409758	5544.666746189585
500.	0.023409023462176975	6059.112236799058
550.	0.024459367975671036	6551.204239505062
600.	0.025523842684413888	7022.455035236317
650.	0.026593027458239677	7474.397140778623
700.	0.027662212232065466	7908.516842648698
800.	0.029788806617009715	8728.65132923752
900.	0.03185417015587583	9492.913292478243
1000.	0.03387243304391262	10209.680532031807