# E_R [keV]  \xi_T*d_E/dx_T [keV/Å]  x_T [Å]
0.0011	0.00008781495567812906	1.202322958460115
0.0012	0.00009255283321460867	1.3070290918008198
0.0013000000000000002	0.00009744360640067186	1.4064007622490222
0.0014	0.00010219092194021218	1.500959000253859
0.0015	0.00010676740962435354	1.5912991028632786
0.0016	0.00011128821309043666	1.6778713325169017
0.0017	0.00011570519852285192	1.76103220243992
0.0018000000000000002	0.00012002119732251748	1.8411106597561284
0.002	0.00012825302359207428	1.9931630919045675
0.0022500000000000003	0.00013818180281194786	2.1703116920329784
0.00249999	0.00014760092986654274	2.335451274747609
0.00274999	0.00015671804082319473	2.490535237329188
0.00299999	0.00016542931764823593	2.6370334843876644
0.00324999	0.00017393295840594132	2.776100185548971
0.00349999	0.0001821345830657038	2.908635971901441
0.00374999	0.0001900341916275234	3.0354381597325633
0.00399999	0.00019773560212506795	3.1571396894856942
0.004499990000000001	0.0002125343909242711	3.3872147246210274
0.00499999	0.00022671027152146707	3.6021048167739007
0.005499990000000001	0.00024019717789523074	3.8042564126458576
0.00599999	0.00025317443210371565	3.9955639404311167
0.006499990000000001	0.0002656514721499826	4.177486074234834
0.00699999	0.00027781705809524603	4.351158547272617
0.00799999	0.0003008646615695153	4.677375365679716
0.008999990000000001	0.00032260982062140575	4.980155826565696
0.00999999	0.00034325073331519234	5.263658242897104
0.0109999	0.00036298559771515024	5.530925951172673
0.0119999	0.00038191823185494716	5.784337180991766
0.0129999	0.00040005807373764393	6.025730587550199
0.013999900000000001	0.0004174995033938477	6.256620294835854
0.0149999	0.0004344407188878335	6.478190490825675
0.0159999	0.00045077790218593357	6.691428250660015
0.016999900000000002	0.0004666243093248763	6.897186921155452
0.0179999	0.00048206488233220826	7.0961589450971605
0.0199999	0.0005115680799000074	7.476085988872479
0.0224999	0.0005465358812399615	7.922090400155399
0.024999900000000002	0.0005795217019371651	8.34116925411988
0.0274999	0.0006108181200865004	8.73761387489819
0.0299999	0.0006406233337522425	9.1147005437268
0.0324999	0.0006691355409986667	9.474998159326931
0.0349999	0.0006965529398900476	9.82053873405261
0.037499899999999996	0.0007228849684294463	10.152993649693792
0.0399999	0.000748310948675016	10.47375295094755
0.044999899999999995	0.0007966052103367015	11.084648086477022
0.0499999	0.0008420114430618078	11.660609556536969
0.0549999	0.0008848505389543991	12.207139611598215
0.059999899999999995	0.0009256038361705721	12.728433573709344
0.0649999	0.0009642807727133878	13.227824380061687
0.0699999	0.0010016458268307638	13.707899059849186
0.0799999	0.0010706942572229646	14.618639772829184
0.0899999	0.0011357315363143608	15.474100784202077
0.0999999	0.0011958516158111238	16.283602666055565
0.11	0.0012520266100285074	17.05468088321663
0.12	0.001305219195278705	17.792805109619966
0.13	0.0013563920478739087	18.501956240347052
0.13999899999999998	0.0014036764432080976	19.18574902541686
0.149999	0.0014499132202025469	19.847213181064827
0.159999	0.0014932336542512348	20.488542165757657
0.169999	0.0015355159079632442	21.111759079120034
0.179999	0.001575844495041685	21.718417263005975
0.199999	0.0016524999559008229	22.88778176941955
0.224999	0.001740462144426699	24.278372831885772
0.249999	0.0018214402106876452	25.603086635921123
0.27499900000000005	0.0018975105153570186	26.871888599534785
0.299999	0.0019685786784042125	28.092379115314962
0.32499900000000004	0.0020347390798598347	29.271064484858613
0.349999	0.0020978793203360268	30.41288401051199
0.374999	0.002157055599526718	31.521871338564893
0.39999900000000005	0.0022133060977685875	32.601588539690766
0.44999900000000004	0.0023178791716813247	34.684122932348636
0.499999	0.0024143355629618456	36.678221627493436
0.549999	0.0025020146113959	38.597660290583185
0.5999990000000001	0.0025836533378710965	40.45328791189581
0.649999	0.002660289922724113	42.25292116871549
0.699999	0.00273192436595495	44.00306376209642
0.799999	0.0028614137679479784	47.37676390848781
0.899999	0.0029778787257172174	50.608666787302404
0.9999990000000001	0.0030833012199054195	53.72236615099766
1.1	0.003179663231155333	56.735820516265974
1.2	0.003267059139497566	59.66343231083871
1.3	0.003348414725880941	62.51645326464277
1.4	0.0034237299903054574	65.30345816978189
1.5	0.0034930993128017224	68.03221454720527
1.6	0.003558315913951272	70.70894442067653
1.7	0.0036195685538153214	73.33853717439752
1.8	0.0036777066526693337	75.92512281731041
2.	0.003783978567133	80.9833567871047
2.25	0.003900537904932847	87.12269996560008
2.5	0.0040048278387537625	93.09087364844548
2.75	0.004096942748626354	98.91455210330322
3.	0.004180752215805514	104.61460930201567
3.25	0.004255406820015781	110.20773698683739
3.5	0.004324776142512046	115.70708106824752
3.75	0.0043870669627127734	121.12334756172359
4.	0.004445016301505572	126.46600498162772
4.5	0.004547607394775559	136.95851621386817
5.	0.004635475203270827	147.23398091731542
5.5	0.0047118286480320225	157.32934356565144
6.	0.004778649709701895	167.27272369113697
6.5	0.004837920368923193	177.08596525413796
7.	0.0048906788060325964	186.78632419401177
8.	0.004979018514680903	205.9054768975174
9.	0.005050841717972953	224.7209456516265
10.	0.005109357336949395	243.29595265853357
11.	0.005157679912620262	261.67827234751076
12.	0.005196942005352842	279.90555244418965
13.	0.0052292199758204915	298.00835229624175
14.	0.00525659018469657	316.00862713781794
15.	0.005280185192348361	333.92184535007016
16.	0.005298966818439187	351.76332926904917
17.	0.005314162003366939	369.54798273870745
18.	0.0053266201674070845	387.2866155271642
20.	0.005345684933589731	422.65702491365147
22.5	0.005359841938180806	466.73044299900573
25.	0.005365504740017236	510.7248451009296
27.5	0.005367392340629379	554.6895858783259
30.	0.005364560939711164	598.6585155752865
32.5	0.005358898137874734	642.6632428738403
35.	0.005351347735426161	686.722906982684
37.5	0.005342853532671517	730.8489991915653
40.	0.005333415529610801	775.0493709586731
45.	0.005313595723183296	863.6920015497722
50.	0.005291888316143649	952.6845104656323
55.	0.005273012310022217	1042.020171783307
60.	0.005254136303900783	1131.6721937879186
65.	0.0052324288968611365	1221.6752491331563
70.	0.005216384291657918	1312.0088767796235
80.	0.005197508285536486	1493.3086290687415
90.	0.005188070282475769	1675.085548350351
100.	0.005186182681863626	1857.0498550429525
110.	0.005186182681863626	2039.0417564794857
120.	0.005189957883087912	2220.966069090983
130.	0.00519467688461827	2402.738820172245
140.	0.005201283486760771	2584.3135513947414
150.	0.005208833889209345	2765.6427255760273
160.	0.005219215692576133	2946.6614682528902
170.	0.0052314850965550636	3127.2837953040453
180.	0.005243754500533995	3307.4833355210035
200.	0.005276787511246503	3666.422045299245
225.	0.005325865127162227	4111.574954890511
250.	0.005387212147056883	4552.143997025495
275.	0.005457997170012256	4987.333285117309
300.	0.005537276395722273	5416.577474271213
325.	0.005624106023880863	5839.430907126764
350.	0.005718486054488026	6255.517748073866
375.	0.005816641286319476	6664.6538603837525
400.	0.0059204593199873555	7066.750510694705
450.	0.006138477190689904	7849.622935245253
500.	0.006365933064453168	8604.565647191803
550.	0.006600939340665004	9332.553400759924
600.	0.006839720818101126	10034.858049454911
650.	0.007082277496761536	10712.85833231156
700.	0.007323890375115875	11368.049775014977
800.	0.007805228531212409	12616.07054215448
900.	0.008279205044921583	13789.865677683913
1000.	0.008743743555570041	14898.883757126525