# E_R [keV]  \xi_T*d_E/dx_T [keV/Å]  x_T [Å]
0.0011	0.0002533396096658828	1.2829636506229516
0.0012	0.00026804167217813054	1.3859274711817422
0.0013000000000000002	0.00028311128625318447	1.4833072389546071
0.0014	0.0002978857859347442	1.575667959079817
0.0015	0.0003119895710856359	1.663655839833993
0.0016	0.00032607189337154616	1.7477601512005836
0.0017	0.0003398671498383304	1.8283368499078558
0.0018000000000000002	0.0003531043718155987	1.9057695737909977
0.002	0.0003792622385116598	2.052378714911988
0.0022500000000000003	0.00041073484714873614	2.2222207263897067
0.00249999	0.00044079090669704095	2.3797770947676513
0.00274999	0.00046998308592984515	2.5270848433508495
0.00299999	0.0004980189533117774	2.665680151114199
0.00324999	0.0005254914204879484	2.796755219336996
0.00349999	0.0005518370872525965	2.9212807188983576
0.00374999	0.0005778876396237508	3.04003114180252
0.00399999	0.0006030796773956496	3.1536242847474782
0.004499990000000001	0.0006520686667156574	3.367423649609895
0.00499999	0.0006987772266313933	3.566062887234935
0.005499990000000001	0.0007440370431608858	3.75203667580448
0.00599999	0.000787633487654321	3.9272135384847138
0.006499990000000001	0.0008298080173427397	4.09309983841787
0.00699999	0.0008708557466196356	4.250866595914365
0.00799999	0.0009495439753576329	4.545691829820753
0.008999990000000001	0.0010245566884675681	4.817550718934863
0.00999999	0.0010964841147364298	5.070564479170969
0.0109999	0.0011655677113952578	5.30777595877739
0.0119999	0.00123215625	5.5315823320034845
0.0129999	0.0012967594735939644	5.743773444448651
0.013999900000000001	0.0013591090963648836	5.945818002340641
0.0149999	0.0014197685185185188	6.138918590399804
0.0159999	0.0014787645686360966	6.324046070700655
0.016999900000000002	0.0015363387039486578	6.50201512317816
0.0179999	0.001592517753037429	6.673512434676586
0.0199999	0.001700985706937096	6.999384366743302
0.0224999	0.001830245811287478	7.379315581440826
0.024999900000000002	0.001953898742161474	7.7338412044698215
0.0274999	0.0020719713281403098	8.067071468402208
0.0299999	0.0021858318268665492	8.382145244855167
0.0324999	0.0022952656096903784	8.681514087433614
0.0349999	0.00240131899127964	8.967146642399076
0.037499899999999996	0.0025040456287967867	9.240618599737132
0.0399999	0.002603713808054086	9.503252004238117
0.044999899999999995	0.0027943845348324513	10.000306404113893
0.0499999	0.0029774896017048798	10.4651534895926
0.0549999	0.003149568121693122	10.903040016529847
0.059999899999999995	0.0033160394682049776	11.318014680097509
0.0649999	0.0034769036412404465	11.712982146261771
0.0699999	0.0036321874693807567	12.09037710563727
0.0799999	0.003926175062463258	12.80032751354136
0.0899999	0.004203475278022732	13.460376607434863
0.0999999	0.004464195430384088	14.079447671798023
0.11	0.004713781721536351	14.664109115558109
0.12	0.004952260980060749	15.219238453757649
0.13	0.005182369721242406	15.748688939825621
0.13999899999999998	0.005401478744121105	16.255605692775205
0.149999	0.005612270906819518	16.742797272352547
0.159999	0.005817482724622772	17.2122520626011
0.169999	0.006014458167989418	17.66575253528759
0.179999	0.0062085361245835784	18.1047476079769
0.199999	0.006574746258328434	18.94405058787773
0.224999	0.007007518102096807	19.93169736816606
0.249999	0.007415393022486773	20.861761202314444
0.27499900000000005	0.007801214849108368	21.743304888834537
0.299999	0.008167424982853224	22.583322353889635
0.32499900000000004	0.008514586823927103	23.38743367223014
0.349999	0.008850480660885753	24.159914738846958
0.374999	0.0091700090632961	24.90428861161403
0.39999900000000005	0.009478269461591221	25.623613866785938
0.44999900000000004	0.010062059389084851	26.996518679991123
0.499999	0.010606947873799726	28.294465830562025
0.549999	0.011121251775916127	29.529144929657807
0.5999990000000001	0.011605507667058593	30.709581311415725
0.649999	0.012067495835782874	31.842836511814475
0.699999	0.012504801709778562	32.934608362484354
0.799999	0.013323878294630609	35.011793900472306
0.899999	0.014079371141975308	36.969642308641035
0.9999990000000001	0.014779865397805214	38.828730352316626
1.1	0.015433141350676072	40.60456795198208
1.2	0.016048052432392712	42.308869034451895
1.3	0.01662701321526553	43.95090620100087
1.4	0.01717538941553988	45.53819480734754
1.5	0.017696132177150697	47.07682691106002
1.6	0.01819219264403292	48.57187384361653
1.7	0.018665985388496963	50.02758193380136
1.8	0.019117778696355083	51.44763622955545
2.	0.019971732436801885	54.192773966043276
2.25	0.020947756221830295	57.470387253377275
2.5	0.02184356254899079	60.60474881671943
2.75	0.022670151136586325	63.61789638273578
3.	0.023438789988732122	66.52685755120646
3.25	0.024157259393983936	69.34495460376344
3.5	0.02482877878208897	72.08311801737254
3.75	0.025461665013227518	74.75029292493191
4.	0.026058600945522245	77.35381533050209
4.5	0.02716045077650402	82.39392098918849
5.	0.02816518114344503	87.24230993615208
5.5	0.029081108906525575	91.92805736380859
6.	0.029914136353615523	96.47505034615895
6.5	0.030691092065941606	100.90122568209817
7.	0.03138541574808936	105.22254001134174
8.	0.03268874822408387	113.59521944626417
9.	0.03385230379188713	121.65672257716717
10.	0.03484979044189693	129.46526801904045
11.	0.03578932735645699	137.06016075559603
12.	0.03661806223055066	144.46927937121654
13.	0.03736309193121694	151.72119529257733
14.	0.038051781611307074	158.83564894424677
15.	0.038710959852047824	165.82497113880987
16.	0.039287506062610236	172.70353650962085
17.	0.03983534569126004	179.4847329876307
18.	0.040354210452185	186.1756702491994
20.	0.04127979650450716	199.31755858490783
22.5	0.04228077087007643	215.36662214868625
25.	0.04314009032676857	231.06701182836682
27.5	0.043886193170683915	246.47847595995137
30.	0.04454349341073879	261.6461229829965
32.5	0.04514445363021752	276.60099721725805
35.	0.04565956238977072	291.37202232134234
37.5	0.046118331128747796	305.9866855363301
40.	0.046520759847148735	320.4657156628655
45.	0.04723171724965707	349.0758941626692
50.	0.047797800313541056	377.30222331077346
55.	0.048272666201254165	405.22410257275124
60.	0.04866168062904175	432.8971666422461
65.	0.04896216073878111	460.3760084152277
70.	0.049230446551048405	487.69666140457514
80.	0.049614095262590634	541.9645378536038
90.	0.04984482106114051	595.9037634619107
100.	0.05000847540662356	649.6325891549329
110.	0.05007822971781305	703.2360928625047
120.	0.05008091257593573	756.8034561391798
130.	0.050048718278463654	810.38912031065
140.	0.05000579254850089	864.0138176828858
150.	0.04990116108171664	917.7179682237047
160.	0.04979116389868705	971.5401481824649
170.	0.04967311814128944	1025.4984664016024
180.	0.049831406770527144	1079.4430089419845
200.	0.05055041274740349	1186.3958342394085
225.	0.05067918993729179	1318.7647700519115
250.	0.05036529553693906	1451.453976671366
275.	0.04987701535861258	1585.2522102065695
300.	0.049369955173427404	1720.4107437815612
325.	0.048852163555751525	1856.9870308423338
350.	0.04837998052616108	1994.964828340173
375.	0.04799096609837351	2134.1738114838804
400.	0.04763414596805801	2274.465533316811
450.	0.04712172006662748	2557.7223135409427
500.	0.046810508524397415	2843.426079067405
550.	0.04663880560454635	3130.5833108192646
600.	0.04657978272584755	3418.437350976682
650.	0.046606611307074275	3706.3742443742844
700.	0.04668173133450912	3993.984939836979
800.	0.04694733428865373	4567.189274019039
900.	0.0472773258377425	5136.697423484652
1000.	0.04763414596805801	5702.047148854506